935
935
935
935
935
935
935
935
934
938
937
943
947
951
953
956
959
963
967
972
975
979
976
979
982
985
986
985
983
983
984
983
982
981
977
977
980
977
976
973
968
969
971
970
970
967
963
963
965
966
964
963
961
962
961
965
964
962
961
961
960
961
963
962
958
959
958
960
960
962
959
958
958
959
959
957
957
958
960
960
957
957
955
956
959
960
959
954
952
954
959
962
959
957
956
956
958
959
957
956
955
958
957
959
959
957
956
959
959
960
959
958
955
959
959
959
960
959
958
957
963
962
965
967
966
975
978
982
978
975
975
979
986
993
995
994
993
994
996
998
1000
999
996
995
994
993
994
989
984
976
968
959
952
948
946
948
948
950
948
945
941
945
945
948
950
949
946
947
948
951
949
950
944
947
950
949
950
950
952
953
953
951
950
950
953
964
982
1007
1034
1071
1104
1142
1179
1207
1229
1244
1256
1260
1242
1216
1189
1166
1139
1106
1075
1053
1043
1025
1003
985
975
967
959
949
938
930
925
923
920
914
912
914
916
920
916
916
914
915
918
921
918
918
917
915
919
921
922
919
917
920
922
923
922
919
917
917
921
922
921
920
918
915
917
919
921
918
917
918
921
920
918
919
921
920
925
928
926
927
925
930
930
934
935
938
937
940
944
949
950
952
954
958
964
972
974
976
977
978
982
983
988
989
987
990
991
992
993
990
990
989
989
987
987
985
984
981
980
981
978
971
968
971
972
971
973
968
962
963
966
967
964
967
966
966
966
965
965
962
962
962
961
961
961
959
958
959
962
961
960
959
952
957
960
962
960
960
958
958
962
966
964
959
958
955
959
960
960
962
961
960
960
961
962
958
956
957
959
960
960
959
955
957
960
960
960
958
952
955
960
960
958
956
953
955
958
963
964
965
963
967
975
979
979
975
972
974
980
983
989
988
989
990
995
1000
995
994
991
990
991
990
987
983
976
970
959
952
946
945
943
943
941
942
944
942
940
940
944
945
945
944
946
946
947
948
946
944
945
947
949
950
951
947
946
947
946
946
947
950
958
979
1006
1042
1078
1116
1152
1190
1220
1241
1259
1259
1237
1206
1180
1156
1130
1101
1073
1059
1055
1043
1024
1001
986
974
965
954
941
933
926
925
925
922
920
916
912
914
916
920
921
920
918
919
925
929
927
925
922
921
923
925
924
926
925
926
926
927
924
923
921
921
922
923
923
924
923
922
924
924
924
923
919
921
921
921
925
924
922
925
926
930
929
928
929
934
936
941
942
940
944
947
955
959
960
957
959
963
967
973
976
977
977
978
983
986
984
984
980
983
980
983
981
975
972
974
973
974
971
968
964
965
964
964
963
962
958
958
960
961
960
958
955
955
956
957
957
956
953
956
955
956
954
954
951
951
954
957
957
954
952
950
952
955
954
951
951
950
953
953
952
951
951
953
957
956
953
949
947
949
952
954
953
951
949
950
952
953
953
951
951
953
957
959
957
952
949
953
957
960
960
966
964
969
974
980
976
973
975
981
988
990
991
995
997
999
1001
1003
1001
998
990
990
988
988
982
973
961
954
950
949
950
946
943
944
946
949
948
947
943
947
949
949
948
949
948
950
953
954
953
951
949
952
954
956
956
953
948
948
952
960
978
1004
1035
1072
1107
1146
1179
1209
1230
1245
1255
1252
1231
1201
1175
1154
1132
1098
1062
1040
1021
1008
989
975
963
951
942
934
930
926
925
917
912
910
911
913
912
911
907
910
913
914
915
913
910
912
914
915
919
918
915
917
918
918
920
919
917
917
919
917
919
918
914
917
918
920
917
915
914
916
919
919
917
916
918
920
922
924
923
921
920
922
923
925
928
929
929
933
939
944
942
943
944
947
950
955
961
962
961
966
972
974
977
978
976
979
980
983
984
988
987
988
987
990
986
982
979
978
981
981
978
974
972
970
973
973
971
969
969
968
967
970
970
965
964
962
962
965
965
965
961
961
959
961
961
961
959
957
958
958
960
960
959
959
962
962
961
963
962
960
960
960
960
960
958
960
961
963
961
961
956
957
959
961
962
958
956
960
963
965
964
961
958
958
962
965
964
960
958
959
962
965
962
960
961
965
968
971
975
975
975
976
980
981
978
982
985
988
992
997
999
998
998
1000
1005
1003
1003
998
994
996
995
990
978
968
959
956
956
957
952
951
949
950
953
956
955
954
955
954
954
958
961
959
956
958
957
961
962
962
960
961
963
963
961
959
957
958
969
991
1022
1061
1095
1136
1178
1213
1234
1252
1260
1252
1231
1203
1178
1159
1138
1116
1086
1058
1037
1018
1002
985
970
958
951
940
927
924
922
924
923
921
917
915
916
916
916
917
920
921
921
922
922
923
924
925
926
926
925
925
927
931
930
930
929
925
926
930
930
927
928
924
927
929
927
928
926
925
923
922
929
928
927
924
925
927
929
931
930
927
931
934
939
940
944
941
945
947
948
949
950
950
955
961
967
968
973
972
977
981
985
986
988
989
991
993
996
995
994
993
989
989
992
989
984
981
980
981
979
978
978
976
977
976
975
973
975
975
973
975
976
973
971
968
969
970
972
972
970
968
967
968
970
970
969
970
970
970
971
973
969
966
968
970
968
967
968
968
969
969
972
971
968
967
968
970
974
970
966
968
966
971
972
973
970
967
967
969
972
970
971
968
968
972
971
969
968
965
969
974
975
973
970
967
967
971
976
977
979
983
990
995
994
988
989
990
998
1004
1007
1006
1009
1007
1006
1009
1013
1011
1009
1006
1002
1002
1000
998
986
972
964
959
958
957
956
957
958
956
956
957
957
956
959
957
959
960
959
959
959
962
965
963
963
963
968
970
969
966
961
962
966
975
992
1015
1047
1084
1127
1172
1211
1239
1263
1271
1263
1240
1216
1191
1172
1149
1117
1086
1067
1052
1029
1008
992
978
970
959
947
935
932
932
927
927
925
924
925
922
921
923
925
925
925
929
929
928
927
926
924
927
930
930
931
930
931
931
928
929
928
928
928
931
930
930
929
927
931
932
933
934
932
928
932
934
936
935
934
931
931
931
933
936
938
937
940
942
946
950
951
952
958
961
965
969
968
970
976
980
984
987
988
989
992
997
1001
999
998
993
994
996
997
996
992
989
989
988
990
987
984
981
980
979
977
977
976
974
974
976
977
974
974
968
970
970
972
969
969
964
967
969
971
970
968
965
966
967
971
967
965
965
962
966
968
967
966
966
965
966
967
966
967
962
964
963
965
966
966
966
965
964
968
968
967
964
966
967
969
970
969
964
966
969
969
970
967
965
967
968
971
970
970
970
969
973
973
973
971
970
979
983
985
987
985
984
985
989
995
998
998
999
1002
1005
1012
1010
1009
1003
1004
1007
1007
1006
1001
998
993
988
980
969
963
953
954
957
958
956
954
950
955
956
958
958
956
956
958
959
960
960
958
956
960
963
965
966
964
960
964
962
962
961
962
964
977
996
1024
1060
1097
1135
1175
1212
1239
1256
1266
1257
1237
1212
1191
1175
1155
1129
1096
1068
1051
1038
1020
998
981
969
961
952
942
935
933
931
931
930
927
925
923
924
925
924
925
924
925
928
930
929
930
927
929
931
931
930
925
925
927
929
930
928
927
923
925
929
932
931
928
927
925
929
927
927
929
925
923
926
927
930
930
930
927
931
931
931
932
934
933
938
942
942
942
943
948
954
956
958
959
964
970
975
976
979
978
978
982
985
989
989
989
989
990
993
996
993
989
986
988
985
983
984
983
978
978
979
982
979
976
975
974
975
975
975
972
968
966
968
972
972
967
965
967
968
971
970
969
963
964
965
969
968
965
964
965
966
967
966
964
964
966
967
965
968
967
965
967
966
969
967
963
963
963
967
967
966
965
963
963
965
967
968
968
965
966
967
969
967
968
965
966
966
967
968
966
964
969
969
969
969
966
967
970
971
975
978
980
980
982
988
988
986
986
986
994
999
1003
1005
1006
1006
1009
1012
1011
1008
1005
1002
1003
1004
1004
999
990
979
970
965
963
959
955
956
957
959
960
958
956
954
956
960
960
960
960
959
959
960
964
965
963
962
962
963
966
968
963
962
961
959
962
964
973
988
1015
1051
1088
1123
1159
1195
1227
1251
1264
1265
1244
1214
1188
1173
1156
1128
1095
1072
1055
1052
1040
1020
999
980
966
959
953
945
937
933
932
929
928
925
924
922
924
927
929
928
925
926
927
929
935
932
927
925
926
928
931
931
930
928
929
932
930
932
930
930
928
927
929
929
926
922
922
922
925
924
922
923
925
923
926
926
925
925
927
930
931
927
928
927
930
936
938
936
937
939
943
944
947
951
953
954
958
961
966
969
970
971
974
975
981
984
986
985
989
992
993
994
992
991
992
993
993
990
987
984
982
985
984
982
977
976
975
977
980
978
973
970
969
971
972
971
971
969
967
969
971
972
969
966
968
965
968
967
966
962
965
967
967
965
962
959
962
965
967
965
963
963
962
965
966
966
964
963
965
964
964
965
967
965
966
968
969
966
963
963
965
967
969
966
965
962
964
965
969
969
966
964
963
966
966
967
968
967
966
967
968
967
969
967
969
971
971
971
971
973
980
987
989
988
984
981
986
992
999
1001
1002
1001
1001
1004
1009
1009
1007
1004
1005
1007
1004
1000
999
995
991
985
975
964
959
954
954
956
956
954
952
950
953
956
957
955
957
954
954
956
956
957
957
954
956
959
962
965
959
959
962
960
961
961
958
957
960
969
981
1004
1026
1057
1092
1129
1165
1196
1220
1240
1260
1265
1255
1229
1200
1178
1161
1143
1120
1090
1068
1057
1042
1027
1008
989
974
962
952
941
931
926
923
920
919
917
918
918
919
914
914
913
918
919
918
918
919
919
920
919
918
920
923
922
923
923
920
919
920
923
923
923
920
919
917
918
919
919
919
918
919
919
920
919
917
918
918
920
921
918
919
918
918
922
925
925
925
923
926
931
936
937
937
935
938
943
949
951
955
957
957
961
966
964
969
969
974
978
980
980
982
981
986
988
991
990
987
983
985
986
987
987
984
982
979
980
980
977
976
972
970
969
970
969
968
966
967
969
969
966
965
962
962
965
969
965
964
961
960
962
965
964
961
957
960
961
963
961
960
959
960
961
961
962
958
957
961
960
962
962
959
957
959
962
963
964
961
960
962
963
966
964
961
962
961
963
963
962
961
961
962
964
966
962
961
958
961
965
965
964
964
961
964
966
967
967
965
963
962
965
968
970
973
974
980
983
986
985
982
980
985
989
992
993
994
995
998
1002
1005
1002
1003
999
997
998
999
996
993
984
976
969
964
960
955
948
947
950
953
951
949
948
951
953
953
952
952
950
953
955
955
957
956
956
956
959
961
960
957
955
959
955
959
961
967
987
1019
1057
1099
1143
1176
1213
1242
1264
1280
1275
1253
1223
1194
1170
1149
1118
1085
1059
1044
1031
1012
995
977
966
957
947
937
932
926
925
922
919
917
916
917
913
912
918
920
920
919
916
918
919
920
920
921
919
921
924
924
923
922
918
918
922
922
923
923
922
918
922
924
923
921
919
920
924
925
925
921
920
919
922
922
922
924
924
926
928
927
930
932
931
934
937
940
941
942
942
944
952
956
958
962
962
964
969
973
977
978
977
982
986
989
992
992
992
991
990
988
989
987
983
983
984
982
980
979
974
974
974
972
972
970
965
967
972
972
970
969
963
964
965
965
966
967
964
963
964
965
964
962
961
961
963
964
963
964
960
960
961
960
959
960
958
958
960
963
962
961
960
961
963
964
963
963
958
960
963
964
963
965
964
959
963
966
965
964
961
960
962
963
964
962
960
962
963
965
965
962
961
960
962
962
963
962
963
963
966
972
974
976
974
977
980
982
979
980
979
988
992
995
999
997
999
1002
1003
1002
1001
997
993
993
990
989
985
977
968
959
958
955
952
949
948
949
948
948
948
946
949
953
953
954
955
955
954
955
956
958
959
957
956
956
960
962
959
960
957
956
960
961
969
985
1014
1047
1087
1120
1158
1190
1215
1240
1257
1268
1264
1242
1210
1186
1168
1147
1112
1076
1049
1031
1018
1005
985
968
958
951
947
940
931
925
921
919
918
919
918
919
916
917
919
920
920
917
921
921
924
920
920
922
919
920
925
926
920
922
921
922
923
923
922
924
921
920
921
921
919
922
920
923
924
924
922
922
922
922
924
924
924
924
925
927
933
932
936
932
933
937
943
944
945
944
944
950
955
959
961
963
966
970
975
979
979
983
980
985
987
989
988
986
985
987
986
984
985
980
976
976
976
978
977
976
971
971
973
973
972
971
970
968
971
974
970
968
966
968
969
968
969
968
966
965
966
964
968
964
965
965
968
968
968
966
964
969
970
969
967
967
966
969
968
971
970
966
964
969
967
970
969
968
967
968
971
970
972
969
968
969
973
975
975
971
967
969
969
973
973
973
970
971
973
977
978
977
974
977
983
989
993
992
992
992
993
994
996
1001
1003
1008
1010
1013
1015
1015
1013
1014
1011
1010
1010
1008
1004
1000
992
985
974
966
961
961
960
965
962
960
961
961
965
969
968
966
961
965
966
966
969
966
964
966
969
971
973
971
966
965
967
973
980
993
1009
1036
1066
1100
1135
1173
1207
1237
1257
1274
1268
1243
1210
1183
1160
1138
1106
1079
1063
1050
1031
1013
998
985
973
962
955
950
943
939
936
934
934
934
931
932
928
932
935
938
937
934
931
932
934
935
938
936
936
933
938
936
937
937
935
935
937
937
937
935
936
937
938
938
936
936
937
937
938
940
938
936
936
935
937
942
941
941
938
941
943
946
948
947
945
947
952
958
960
962
962
962
968
975
979
982
983
985
991
994
996
997
1001
1002
1005
1005
1003
1002
1001
1003
1002
1002
999
996
994
993
994
993
990
989
986
988
990
989
989
986
982
984
984
985
984
981
980
979
981
985
980
983
978
978
980
981
981
978
974
976
978
980
981
978
978
980
979
978
978
980
978
978
979
981
980
980
979
979
982
981
982
981
981
981
982
984
981
979
978
981
984
983
983
984
981
985
986
989
986
982
980
981
985
986
987
989
994
1001
1005
1006
1002
1000
998
1002
1010
1014
1016
1017
1014
1016
1023
1026
1024
1020
1015
1015
1016
1013
1006
992
980
970
972
971
971
969
966
968
967
970
973
971
971
972
972
972
972
971
971
975
977
978
980
979
975
979
981
983
983
978
975
979
986
1003
1029
1064
1102
1147
1190
1225
1250
1266
1278
1288
1279
1253
1218
1192
1167
1134
1106
1086
1071
1055
1032
1012
996
987
976
966
954
950
950
947
943
938
937
938
938
938
940
937
937
938
940
945
943
943
940
941
946
948
945
942
940
941
943
947
946
941
940
941
945
946
946
944
936
935
940
943
941
942
939
939
940
943
940
938
938
938
940
943
944
942
943
946
948
951
955
957
958
961
963
968
969
970
970
974
979
983
985
988
987
992
997
1002
1004
1004
1003
1002
1004
1008
1005
1005
999
1001
1002
1001
1001
999
993
994
997
995
995
994
991
989
990
988
987
984
984
985
986
984
986
984
983
983
983
985
984
981
979
979
980
979
977
977
978
981
981
982
982
981
979
982
983
984
981
979
977
978
981
985
985
983
978
979
981
983
982
979
978
981
980
979
978
979
980
980
983
983
982
981
979
980
980
980
981
980
978
981
984
983
983
981
983
988
995
1000
1000
997
995
999
1005
1011
1015
1014
1014
1017
1020
1024
1022
1017
1014
1011
1014
1012
1006
998
986
977
972
968
967
964
964
965
965
970
971
970
966
966
967
969
970
970
967
969
973
974
975
973
970
972
973
973
974
970
968
976
990
1018
1050
1085
1124
1169
1212
1244
1267
1276
1264
1237
1210
1184
1156
1123
1092
1071
1063
1058
1041
1019
998
985
974
963
953
945
940
940
939
936
936
932
933
932
934
937
936
934
934
936
939
942
940
937
936
938
939
941
939
939
939
940
942
943
941
940
939
937
938
939
942
939
939
939
939
938
936
936
938
939
940
943
942
939
942
941
943
942
945
944
943
947
951
955
958
959
960
962
966
968
971
972
970
975
980
986
990
992
990
993
996
999
998
999
999
1002
1003
1002
1002
1000
999
996
997
998
994
993
988
987
988
991
989
984
984
984
982
986
982
982
982
980
982
982
979
980
977
979
981
980
977
975
972
974
975
973
973
973
973
974
974
976
975
975
975
974
975
977
977
975
975
975
975
976
971
974
971
975
978
978
976
974
971
973
975
978
977
977
974
975
977
976
976
973
970
974
975
974
976
972
972
971
975
976
975
976
976
976
980
982
986
990
988
991
994
994
989
989
991
999
1005
1010
1011
1009
1010
1012
1018
1019
1017
1013
1009
1011
1010
1005
1001
992
980
973
968
968
966
962
960
962
965
965
965
963
963
965
968
969
968
966
963
967
969
969
971
973
971
971
972
975
975
972
970
971
978
990
1010
1038
1070
1106
1140
1174
1200
1225
1245
1262
1273
1264
1237
1205
1176
1156
1130
1099
1071
1051
1039
1024
1007
993
980
972
964
958
953
946
942
935
934
934
935
932
933
931
930
935
937
937
938
935
937
937
941
944
943
940
937
939
940
938
937
934
934
937
939
941
939
935
932
933
938
938
938
937
935
936
939
939
936
937
933
935
937
938
938
940
938
939
939
942
943
944
945
947
953
952
956
956
956
958
962
964
966
967
968
974
977
984
986
986
987
991
993
998
1000
999
999
1001
1001
1002
1003
1001
999
996
997
997
992
989
989
991
990
988
989
985
982
984
985
985
983
982
978
979
980
982
980
978
973
978
978
980
979
978
975
975
975
977
976
976
977
975
978
979
979
976
974
978
978
981
976
975
975
979
979
979
979
977
976
978
978
980
979
978
973
976
976
977
977
975
972
976
979
979
978
972
977
976
977
976
976
979
978
978
981
978
978
976
974
977
977
979
979
978
978
982
981
991
992
998
996
996
992
995
998
1001
1001
1006
1009
1012
1012
1013
1013
1016
1019
1017
1013
1010
1006
1005
1004
1000
992
979
967
964
964
966
966
964
961
957
960
960
963
962
959
963
964
964
963
962
960
961
964
968
968
966
965
965
967
973
970
969
966
969
970
969
971
978
993
1021
1054
1091
1128
1165
1199
1231
1253
1268
1271
1257
1231
1211
1197
1182
1162
1136
1103
1077
1063
1053
1036
1015
999
988
978
968
958
948
940
940
937
934
931
928
927
929
932
931
929
929
928
931
935
935
935
933
931
932
935
937
933
932
930
932
935
935
937
935
933
932
935
936
935
935
933
931
932
934
934
931
930
934
932
933
932
932
931
931
935
936
936
935
935
935
939
941
942
942
941
948
952
954
958
960
960
964
969
973
975
976
977
978
981
986
989
989
992
995
998
1001
1000
999
996
998
997
996
996
993
990
990
991
989
987
984
983
983
983
982
980
976
973
974
976
975
975
975
971
973
974
975
974
973
969
971
970
967
971
970
968
969
969
972
970
969
966
970
969
970
969
968
968
967
970
970
971
969
965
970
972
972
971
969
965
968
972
974
971
970
967
967
969
973
971
969
967
966
968
969
970
971
968
970
972
971
972
974
972
971
973
973
977
980
982
989
994
994
990
989
983
985
990
997
1001
1000
1004
1004
1008
1012
1012
1010
1006
1005
1006
1006
1003
998
991
984
976
969
961
958
956
957
959
958
959
955
953
958
959
960
959
961
957
959
961
959
960
960
960
962
965
964
964
965
961
964
967
968
966
962
964
973
992
1018
1047
1082
1118
1154
1186
1213
1230
1245
1258
1270
1256
1232
1204
1180
1153
1127
1099
1075
1059
1044
1026
1008
994
981
969
958
948
940
938
936
931
927
924
919
920
922
924
921
919
919
922
924
926
925
923
924
926
928
926
924
926
926
927
928
926
928
925
925
927
928
928
928
923
922
925
927
927
925
922
920
925
924
927
926
925
924
927
927
926
924
925
928
928
929
929
929
927
932
935
939
938
939
940
945
948
949
951
952
953
957
963
967
969
971
973
976
981
985
988
989
985
988
988
993
993
991
988
988
984
982
980
980
978
979
977
974
972
970
968
970
970
970
968
964
962
963
967
966
964
958
956
958
962
964
962
960
957
958
960
959
958
958
953
955
955
955
957
955
954
955
957
958
957
956
956
957
955
958
956
953
953
955
958
955
957
957
956
955
957
959
958
957
954
956
957
961
962
957
955
956
957
957
957
955
953
956
958
960
959
958
956
957
958
959
959
959
963
967
974
976
976
974
972
976
983
988
989
989
988
992
995
997
998
997
994
992
990
992
991
988
978
970
961
953
951
946
943
945
946
945
946
946
944
946
947
948
949
945
943
946
948
952
951
951
948
950
952
955
955
954
951
954
953
954
953
952
954
967
987
1018
1056
1090
1127
1167
1204
1232
1251
1259
1249
1224
1199
1181
1163
1150
1123
1090
1060
1043
1028
1011
990
974
962
955
942
931
922
922
922
921
917
914
911
911
915
916
916
915
912
915
917
923
921
919
918
917
920
921
923
922
921
921
922
921
920
918
918
919
919
920
917
914
914
916
920
922
920
918
917
918
919
919
920
918
917
916
918
920
922
919
918
922
924
928
928
929
931
936
939
943
946
949
948
951
953
956
958
959
963
968
973
977
981
980
978
982
982
985
983
982
981
980
979
979
976
974
974
972
971
973
970
968
967
966
967
965
966
964
962
960
965
967
966
964
960
963
964
962
962
959
959
962
961
963
962
963
961
963
961
963
963
962
961
962
962
963
962
962
962
965
967
965
965
961
959
961
965
966
965
963
961
962
963
965
965
963
959
959
960
961
963
963
960
962
965
965
966
965
963
964
966
966
966
965
960
960
965
970
967
970
970
971
977
980
985
983
981
980
985
988
992
995
996
996
1001
1004
1008
1009
1005
1002
1002
1002
1002
999
999
996
990
979
970
961
955
957
956
956
951
950
949
953
957
958
956
955
953
955
956
957
958
958
958
955
960
962
961
961
960
961
963
959
961
959
964
976
995
1021
1048
1078
1103
1136
1169
1200
1228
1246
1257
1253
1235
1206
1181
1159
1131
1103
1079
1063
1047
1028
1006
989
979
970
963
955
946
939
933
930
928
921
916
918
920
920
923
919
917
920
921
925
926
925
925
925
924
924
923
922
921
921
924
926
924
923
922
921
925
922
921
921
916
919
923
924
921
921
920
921
922
926
921
921
920
921
926
925
921
923
921
924
929
930
933
933
934
935
938
941
944
947
947
949
952
957
956
961
965
968
973
978
978
980
978
986
989
990
988
987
986
988
988
990
987
985
982
981
982
980
978
975
972
972
972
973
972
971
967
968
969
971
969
968
965
966
966
967
964
962
962
963
967
966
966
963
963
963
965
963
960
961
961
962
961
964
964
961
961
961
963
964
964
961
959
960
963
962
966
964
964
966
966
967
966
966
964
962
963
963
967
962
963
965
966
967
962
965
963
965
962
964
965
964
963
967
970
970
970
967
965
971
976
983
987
988
985
982
985
990
993
994
997
998
1002
1004
1006
1008
1005
1004
1005
1005
1002
999
997
994
990
984
972
964
956
954
954
954
953
951
951
954
956
958
957
956
955
956
957
960
958
957
954
956
960
962
963
962
959
959
961
962
960
956
951
957
967
981
994
1019
1047
1085
1125
1163
1198
1227
1249
1265
1259
1234
1205
1175
1153
1129
1099
1076
1060
1046
1033
1015
1002
992
981
969
954
944
939
935
932
928
923
924
926
925
925
924
923
926
928
929
928
925
923
924
927
930
929
927
925
926
928
927
927
927
924
923
926
927
929
927
922
925
926
926
927
926
924
924
924
925
925
924
921
924
926
928
928
930
929
931
935
936
937
936
940
942
947
951
956
955
957
961
965
969
972
974
976
983
986
990
990
988
985
986
989
991
990
987
984
984
984
985
983
978
975
973
976
976
973
971
968
967
969
970
970
968
965
964
964
964
963
961
961
960
961
962
961
958
959
959
960
961
960
960
960
959
960
959
958
957
957
961
963
963
960
958
953
955
961
963
963
959
957
957
960
960
960
958
959
958
960
962
963
961
958
959
962
961
961
961
959
960
963
966
964
966
963
964
964
964
963
963
967
974
978
981
981
978
972
977
983
987
991
991
990
997
1002
1005
1003
1001
995
994
996
994
995
990
980
972
962
956
955
950
948
949
949
950
948
949
947
951
952
955
955
955
951
951
953
956
954
955
955
959
959
960
961
961
959
960
960
962
962
970
991
1023
1059
1098
1137
1177
1208
1235
1255
1256
1242
1211
1183
1169
1158
1141
1116
1080
1051
1034
1023
1006
989
971
959
950
942
938
933
932
927
926
925
925
924
924
922
922
923
925
925
924
923
924
927
929
930
928
928
926
927
930
931
929
924
927
929
930
928
926
926
926
926
926
928
923
922
924
924
924
921
922
922
926
929
930
928
925
924
926
930
933
932
933
931
935
938
944
944
943
942
947
952
958
960
961
961
965
968
972
974
978
979
983
985
989
989
990
987
988
989
991
988
988
984
985
985
983
980
978
975
976
978
979
975
973
973
974
973
973
969
968
967
969
971
971
969
967
965
965
965
968
967
965
962
963
967
969
966
965
965
966
966
967
969
967
966
967
969
970
970
967
964
964
967
969
966
966
963
967
966
969
967
965
963
967
969
969
970
968
965
966
969
971
970
967
966
968
971
972
972
970
969
970
974
975
976
979
981
986
989
992
990
985
985
993
1001
1004
1008
1009
1008
1010
1012
1009
1007
1002
997
1002
1001
998
987
975
964
958
957
959
957
957
957
958
961
960
960
960
959
960
963
963
963
962
964
966
967
967
965
965
963
966
969
966
967
970
981
1006
1037
1064
1094
1130
1170
1213
1242
1259
1262
1251
1216
1186
1164
1140
1107
1074
1054
1044
1032
1015
999
986
972
963
955
948
943
935
930
927
928
932
931
929
927
931
934
933
934
934
930
932
932
934
936
935
930
932
934
935
937
932
930
931
932
937
935
932
932
933
930
932
931
931
929
931
931
931
932
929
928
929
933
932
934
935
936
939
942
944
943
944
945
948
953
957
958
961
961
967
972
976
978
979
982
989
994
997
994
992
995
995
998
997
998
995
992
994
992
994
990
986
983
986
984
985
985
985
982
979
981
981
980
976
975
976
977
979
977
978
974
974
973
972
970
970
965
964
966
968
969
969
970
973
974
980
987
994
1008
1029
1047
1070
1099
1128
1157
1180
1203
1234
1263
1292
1315
1340
1363
1378
1377
1342
1283
1218
1167
1116
1060
1008
965
938
922
917
912
907
904
906
909
910
907
907
903
907
907
908
906
903
899
897
898
895
894
889
883
882
884
890
896
897
897
898
898
897
897
901
899
902
904
905
906
906
901
899
898
906
903
902
899
898
899
901
901
898
897
897
897
898
900
899
902
903
904
909
909
911
911
915
919
923
926
925
927
930
937
940
944
947
949
955
961
967
969
968
969
974
975
977
981
979
979
979
982
983
982
983
979
980
983
985
983
983
980
979
980
982
984
982
982
981
982
984
982
983
980
982
981
983
983
981
979
979
981
980
979
977
974
974
977
980
981
979
975
974
976
975
975
973
969
974
975
976
974
971
969
972
974
975
974
972
970
970
970
969
970
970
966
971
973
973
972
968
969
969
970
973
972
970
966
969
972
972
972
969
968
968
970
970
972
968
966
967
969
970
970
970
966
970
970
968
968
968
966
969
972
972
970
970
967
971
970
973
973
970
969
969
971
971
970
969
967
965
967
972
974
969
968
969
968
973
973
971
968
969
971
972
969
970
969
968
972
972
971
971
971
975
977
977
974
970
968
969
972
974
974
972
971
970
974
976
972
972
968
970
971
973
973
972
971
971
974
972
971
970
969
973
974
975
972
973
971
973
973
973
971
973
971
972
975
980
980
979
982
985
990
992
994
988
989
992
999
1004
1004
1004
1003
1005
1007
1008
1008
1010
1008
1006
1005
1003
1004
1002
992
988
979
969
962
960
961
961
962
964
961
958
957
960
961
961
961
959
958
957
961
962
964
964
965
965
966
971
969
965
963
964
964
965
970
979
998
1030
1064
1098
1135
1175
1206
1235
1254
1267
1260
1236
1203
1181
1166
1152
1125
1093
1064
1046
1031
1012
991
974
960
950
944
938
932
930
925
920
920
917
922
919
918
916
918
922
922
922
923
922
921
924
923
925
922
925
924
927
923
922
920
922
922
929
926
925
922
923
927
926
927
927
925
926
930
930
932
931
929
931
934
934
934
933
932
937
940
944
943
942
944
949
954
960
960
960
958
966
970
973
975
977
978
982
988
991
995
997
997
1000
1003
1006
1008
1008
1008
1013
1016
1016
1017
1015
1013
1013
1015
1010
1010
1007
1005
1004
1004
1002
999
995
990
989
989
988
986
984
979
979
979
978
976
974
972
969
968
968
968
967
963
964
964
964
962
960
961
960
962
959
955
957
959
960
960
960
958
958
954
958
959
959
958
956
955
955
958
959
955
955
955
955
959
958
957
957
955
957
959
961
959
960
960
960
960
960
959
959
959
961
963
962
960
960
957
959
961
964
962
961
962
963
969
972
974
976
977
977
978
980
983
987
988
989
995
995
997
1000
1001
1004
1005
1004
1003
997
996
992
997
994
987
978
966
960
958
957
956
952
947
948
949
952
952
950
949
950
950
949
952
953
950
953
954
956
956
957
955
955
960
960
961
956
956
956
957
957
956
958
962
978
1006
1036
1067
1100
1136
1171
1206
1227
1246
1255
1260
1251
1228
1197
1172
1152
1129
1098
1066
1046
1032
1019
1001
985
973
965
957
946
939
932
931
927
923
920
916
916
916
915
918
916
916
916
921
922
922
920
918
917
918
922
923
920
917
922
922
924
924
920
919
919
926
927
924
923
922
921
923
924
923
919
917
920
920
918
921
920
920
922
923
923
924
923
920
922
925
929
929
928
926
928
929
933
933
934
938
940
944
947
950
949
948
954
959
963
964
968
965
970
973
978
979
981
978
983
984
983
982
981
981
980
980
979
978
973
973
973
975
975
974
969
965
967
967
969
968
966
961
963
964
966
965
965
964
965
968
969
967
966
963
964
966
964
963
964
962
964
966
965
966
965
964
966
967
968
968
966
965
965
966
967
967
966
963
963
966
966
966
964
963
962
967
965
964
966
965
968
967
968
966
965
966
968
967
965
964
964
964
967
970
970
970
967
964
964
963
964
966
968
967
971
975
978
982
986
985
987
985
985
986
991
992
998
1003
1004
1004
1004
1006
1007
1008
1007
1006
1001
1000
996
996
988
980
970
959
954
956
957
955
953
949
951
954
957
957
956
952
954
955
957
958
957
955
956
958
960
959
959
958
958
961
961
962
961
958
956
956
962
969
982
1006
1040
1077
1118
1160
1193
1217
1241
1256
1266
1263
1240
1212
1192
1176
1159
1132
1100
1073
1059
1047
1032
1011
990
973
963
958
949
939
932
928
927
924
922
916
917
914
915
917
917
918
914
914
917
919
921
920
919
917
919
922
923
924
922
918
923
920
923
921
918
916
919
920
922
921
920
918
921
922
921
917
916
916
917
923
922
920
919
915
915
919
923
924
923
920
922
924
927
928
929
930
935
937
942
941
942
941
946
950
953
954
955
957
964
967
974
975
974
975
979
983
989
990
990
989
990
992
988
990
987
984
984
984
984
984
980
980
978
977
977
973
974
971
971
975
975
971
967
965
964
968
967
967
964
962
964
965
966
963
961
960
965
967
968
966
962
961
961
962
962
959
962
957
960
964
965
960
958
957
958
962
960
961
957
958
960
963
963
963
960
958
958
960
964
962
961
959
964
964
964
962
961
959
959
966
966
963
964
961
961
965
967
966
963
964
966
970
973
976
981
981
982
983
983
982
983
986
993
997
999
1001
1001
1001
1003
1004
1002
1000
998
995
996
997
990
980
967
955
952
952
953
952
951
948
948
951
954
954
952
950
952
955
955
953
953
952
954
955
955
956
957
959
958
959
958
955
954
952
955
961
974
996
1022
1056
1096
1135
1176
1212
1236
1255
1266
1259
1232
1204
1176
1149
1119
1088
1066
1052
1043
1030
1011
996
983
972
958
946
935
929
926
924
918
919
917
918
919
919
919
917
918
917
920
922
919
918
921
923
924
922
921
918
921
925
925
924
923
922
924
924
926
923
920
919
917
922
924
923
922
917
918
920
922
925
923
918
921
922
924
924
921
922
925
926
930
932
931
933
934
937
943
944
945
947
953
960
962
959
960
963
967
972
975
981
980
980
983
988
989
991
991
987
987
987
985
986
982
982
983
983
981
980
977
974
977
974
976
974
971
968
968
968
966
966
966
967
966
966
966
967
966
964
965
965
965
961
961
955
956
962
964
963
962
961
963
965
965
962
961
958
957
961
963
962
962
960
960
961
965
962
961
961
962
961
963
963
961
960
959
965
963
964
963
962
963
966
966
963
961
958
962
963
964
963
963
961
965
965
967
968
968
965
972
977
980
982
979
977
977
982
986
990
993
994
996
1004
1004
1008
1006
1002
1000
998
998
997
997
988
984
974
964
957
952
950
951
952
953
953
953
950
951
953
955
954
953
953
954
956
955
955
955
955
955
959
960
959
955
952
952
952
957
966
978
1001
1031
1064
1104
1147
1185
1218
1242
1255
1251
1223
1191
1164
1143
1119
1088
1056
1041
1027
1011
994
975
965
953
940
935
932
928
927
922
921
919
921
923
922
921
919
923
927
927
924
925
923
927
929
929
927
928
929
929
928
930
928
925
925
928
932
932
929
927
926
926
928
928
928
926
925
925
928
930
931
928
926
929
930
930
930
931
929
932
936
935
939
940
943
946
949
951
952
954
958
963
968
971
975
978
980
984
986
991
991
991
988
989
991
991
990
989
984
985
983
984
982
979
978
980
977
976
977
975
972
973
974
971
971
971
969
969
968
968
966
965
963
965
968
968
967
966
963
967
969
968
968
966
964
967
968
969
969
967
967
968
969
970
966
966
965
965
969
969
968
966
966
967
968
969
968
966
964
965
968
968
968
964
963
962
967
972
970
967
965
967
966
970
972
967
964
965
969
974
976
978
982
987
990
990
989
987
988
992
996
1002
1001
1001
1003
1008
1012
1011
1009
1006
1003
1004
1003
998
991
979
969
963
959
959
958
955
953
951
955
956
957
953
950
953
957
956
957
955
954
956
962
962
963
964
959
962
960
963
961
957
954
957
967
984
1008
1038
1068
1103
1145
1184
1217
1243
1260
1266
1251
1222
1190
1163
1144
1114
1086
1066
1053
1037
1018
999
987
978
967
953
938
932
931
928
924
921
918
920
923
926
924
921
918
920
921
921
923
924
923
922
924
927
927
924
922
921
926
926
925
927
924
924
928
925
924
921
920
925
924
923
924
920
922
924
925
925
924
922
921
923
926
926
929
928
926
929
931
936
939
939
940
945
950
951
956
954
955
961
969
974
977
978
977
981
985
989
988
988
987
988
992
992
992
989
986
985
988
987
984
982
979
980
980
979
975
971
971
971
973
975
973
972
970
968
969
971
969
967
966
966
970
970
969
968
965
966
966
966
964
965
961
963
965
966
967
965
963
962
963
965
962
960
959
961
963
962
963
962
961
958
963
963
963
964
964
963
965
966
966
964
962
962
966
967
965
964
961
962
964
965
966
963
962
963
962
964
968
966
963
968
969
972
972
974
977
980
982
984
984
984
981
984
993
1000
1002
999
999
1001
1006
1009
1007
1005
999
998
1000
997
995
983
972
965
959
955
954
952
950
950
953
956
950
952
952
954
957
956
956
954
953
956
959
958
958
957
955
957
962
966
965
962
957
958
957
965
980
998
1026
1058
1097
1137
1171
1200
1222
1241
1260
1267
1253
1225
1196
1173
1150
1119
1081
1058
1041
1029
1011
995
980
967
956
946
938
933
931
930
923
920
922
923
923
922
920
918
920
924
924
922
920
925
925
927
927
926
926
924
927
927
926
927
924
925
927
929
928
926
923
925
926
927
925
922
922
921
927
927
926
923
921
922
926
929
927
926
925
926
928
932
933
934
934
936
938
941
943
941
942
948
952
957
958
960
959
962
967
970
974
974
979
982
986
990
991
989
986
989
993
995
992
988
983
982
983
987
986
982
978
976
977
976
977
973
971
971
969
971
971
969
968
967
970
970
969
966
964
966
969
969
967
966
965
966
966
966
968
964
961
963
966
969
968
966
963
966
968
971
971
967
965
964
962
969
969
967
966
965
964
965
965
963
962
966
965
964
963
965
961
962
964
965
965
963
964
964
965
967
967
968
971
974
974
973
974
974
975
978
981
983
985
988
990
996
999
998
998
997
1001
1007
1010
1015
1017
1015
1017
1018
1019
1019
1016
1013
1011
1011
1007
1002
991
981
971
964
968
969
963
960
961
966
966
967
965
964
959
964
967
968
966
966
965
966
971
972
972
971
971
971
975
971
968
967
965
976
999
1031
1066
1104
1144
1184
1219
1245
1262
1272
1266
1244
1211
1186
1163
1142
1115
1086
1065
1050
1033
1012
994
981
972
963
953
947
941
940
937
936
935
933
929
925
925
928
931
934
932
935
936
936
938
936
932
934
935
932
934
933
933
931
932
931
931
935
930
932
933
936
934
933
933
936
935
937
932
929
927
930
932
933
934
931
927
930
932
935
936
935
935
938
941
943
943
944
945
947
950
956
957
961
961
963
967
974
976
977
979
985
987
993
995
995
993
993
999
999
998
997
994
996
997
999
996
993
987
988
991
991
986
986
984
984
985
983
981
978
981
986
987
985
981
979
977
976
974
974
974
973
972
975
978
978
980
984
986
993
1006
1025
1041
1057
1082
1109
1143
1174
1195
1215
1236
1265
1296
1324
1349
1368
1380
1378
1347
1288
1224
1172
1129
1083
1039
999
964
938
919
911
905
902
897
896
894
896
898
898
896
898
894
895
896
894
895
891
885
882
881
878
872
869
866
867
869
874
880
878
876
872
873
876
878
883
887
892
898
902
904
905
902
901
899
900
901
900
896
896
897
899
897
897
894
895
895
894
897
898
899
898
899
902
899
900
902
908
909
912
916
918
917
923
930
934
937
939
940
947
953
957
960
962
965
971
975
981
978
980
979
980
984
984
989
986
983
985
986
987
989
987
987
987
989
989
985
984
984
987
987
989
985
984
981
985
985
986
983
982
979
982
983
986
983
983
980
982
982
982
983
980
978
977
980
982
982
980
976
975
975
975
972
972
971
973
973
976
975
973
969
968
968
971
971
969
967
969
971
973
973
969
967
968
970
975
975
972
971
969
971
971
971
969
968
966
968
971
966
969
967
968
969
969
968
968
964
967
968
966
967
965
962
962
964
964
964
964
959
961
963
965
964
964
960
961
962
964
962
964
964
962
963
963
963
964
963
964
962
966
965
967
965
967
966
971
969
969
964
966
968
969
969
966
964
965
966
969
965
965
963
964
967
966
964
963
958
962
964
964
962
964
962
959
962
963
962
962
958
960
962
961
961
960
958
962
963
966
963
963
958
959
960
966
967
962
960
962
963
969
964
966
964
966
970
976
980
983
984
987
987
985
981
984
990
998
1000
1001
999
999
1001
1005
1007
1005
1001
1000
999
1000
998
995
993
984
973
962
958
957
955
951
950
949
950
951
950
950
949
951
953
956
957
956
953
956
955
959
958
958
956
956
960
961
957
955
954
960
969
982
1004
1032
1068
1111
1150
1189
1218
1241
1258
1269
1256
1227
1194
1171
1155
1138
1115
1087
1063
1049
1033
1015
994
981
970
957
945
936
932
931
928
924
920
916
919
920
921
918
918
918
922
922
921
921
921
921
923
925
927
925
924
924
926
926
927
925
923
924
925
928
926
926
923
924
924
927
927
927
925
926
928
930
930
930
929
928
931
933
933
935
936
940
943
945
948
947
946
951
951
955
957
962
961
967
967
970
973
973
974
979
980
985
988
992
992
993
997
1002
1003
1001
1003
1006
1009
1008
1009
1006
1006
1006
1005
1001
1000
997
995
994
995
993
989
986
982
982
980
980
976
971
969
967
969
970
968
964
962
961
962
958
960
959
954
957
954
953
950
949
947
949
948
952
950
947
946
948
948
947
946
945
942
944
945
949
946
944
942
944
945
944
946
944
943
945
947
951
950
945
941
944
946
948
947
942
940
945
946
947
948
945
943
946
948
949
948
947
945
947
951
950
948
950
947
952
955
960
963
963
964
966
968
968
968
970
972
976
981
987
987
988
989
991
993
995
991
985
983
980
979
976
968
960
949
940
936
935
936
938
938
938
942
942
940
939
936
940
945
943
941
941
942
942
946
946
947
945
945
944
945
946
948
949
949
949
946
946
945
951
963
989
1020
1055
1093
1130
1168
1201
1231
1252
1260
1252
1228
1200
1181
1163
1142
1112
1080
1054
1040
1032
1016
996
976
965
954
945
935
927
920
916
915
914
910
910
907
908
908
905
906
909
905
907
911
912
913
912
913
913
914
913
913
912
913
913
914
917
915
915
912
913
915
917
915
912
911
911
915
917
918
915
912
913
914
917
917
912
911
915
915
916
915
915
917
917
920
922
921
921
921
925
929
934
934
931
930
933
938
942
945
944
947
950
954
958
962
964
964
968
970
972
973
972
973
975
977
975
975
972
969
969
972
970
968
965
962
963
966
967
963
958
954
957
957
962
962
960
955
958
961
962
959
956
957
958
959
961
960
958
959
960
960
957
959
959
955
957
959
958
956
956
956
956
957
959
957
957
957
956
961
959
960
958
953
954
957
959
959
956
956
955
959
958
958
957
956
959
960
961
960
958
955
958
958
958
961
960
960
962
964
964
963
964
962
966
971
976
979
983
980
979
980
985
985
989
990
994
1001
1006
1008
1005
1005
1003
1005
1003
1000
1000
995
992
985
979
970
961
954
954
954
954
954
954
952
955
957
957
957
958
958
960
963
963
964
961
960
961
964
967
968
968
964
965
967
964
962
960
958
969
989
1015
1046
1077
1110
1145
1183
1215
1240
1255
1254
1242
1217
1191
1171
1152
1131
1101
1073
1057
1047
1034
1016
1001
993
982
972
958
946
941
937
935
932
928
925
926
928
930
926
925
926
928
930
930
931
931
929
928
930
931
932
932
929
932
932
933
933
931
929
931
932
929
929
926
926
929
933
933
934
930
927
928
929
930
931
930
929
931
928
932
930
931
929
931
932
937
939
940
940
943
947
949
946
948
949
952
955
962
963
965
965
967
972
973
979
979
979
984
988
991
993
993
995
997
997
997
998
996
993
994
996
995
993
991
986
987
988
986
985
984
980
982
983
985
983
981
978
977
978
979
980
978
977
974
975
974
978
977
974
974
973
974
973
974
973
974
976
976
974
974
972
975
976
976
975
974
974
976
979
978
977
974
976
974
976
975
973
973
968
969
974
976
973
971
970
972
973
975
973
969
967
970
971
973
971
971
969
969
970
972
974
973
977
978
983
989
992
996
996
1000
1000
998
999
1003
1007
1012
1017
1018
1021
1019
1020
1025
1025
1021
1022
1018
1014
1015
1010
1000
989
978
969
970
974
973
971
972
972
972
977
977
977
975
973
975
976
976
976
976
975
978
980
978
975
974
974
976
973
973
971
968
968
981
1000
1029
1061
1095
1128
1167
1203
1236
1260
1278
1276
1257
1230
1206
1184
1159
1128
1102
1084
1077
1063
1046
1024
1009
994
983
969
961
952
948
947
943
940
938
937
939
940
937
934
937
937
938
942
945
946
946
944
948
950
949
949
946
946
949
950
949
948
944
940
943
946
948
947
949
946
947
947
945
942
940
940
945
944
946
946
944
946
951
948
944
942
942
946
950
955
956
952
952
951
960
967
974
974
974
974
980
986
987
982
980
984
989
993
992
992
994
996
1002
1006
1007
1002
1001
999
1001
1001
998
996
994
995
999
997
996
991
986
985
984
987
989
987
984
980
982
983
985
986
986
983
982
982
984
986
985
982
979
980
984
986
987
987
985
985
984
986
985
989
990
988
985
978
977
976
978
982
984
982
981
979
978
982
981
982
979
977
979
983
984
981
977
978
980
979
977
977
977
977
979
979
979
982
979
982
981
982
982
980
979
977
979
983
984
987
991
995
1000
1002
1001
999
998
1003
1006
1012
1016
1016
1020
1021
1024
1023
1022
1018
1014
1015
1009
1008
999
990
977
970
968
970
969
967
964
960
960
962
963
967
968
964
966
965
967
968
968
966
966
967
969
970
971
974
973
974
971
971
969
978
990
1020
1058
1095
1137
1180
1219
1251
1279
1292
1280
1254
1229
1207
1181
1155
1125
1096
1074
1061
1044
1020
1000
984
972
960
955
948
943
937
935
934
937
936
935
930
932
935
939
939
938
938
940
943
942
941
940
937
940
941
945
945
943
943
944
942
939
939
938
939
943
946
948
946
944
943
946
945
945
943
943
940
942
943
946
945
944
942
946
952
956
957
956
954
957
963
965
964
965
967
975
980
983
987
985
985
990
997
1001
1004
1008
1006
1009
1006
1008
1010
1012
1010
1009
1008
1006
1006
1003
996
995
992
991
993
992
989
992
993
989
985
984
982
986
987
987
985
983
984
985
990
994
995
991
986
985
988
990
990
989
987
984
989
994
993
989
984
984
987
989
989
986
984
983
983
986
987
986
984
983
982
983
982
982
981
979
978
981
982
984
980
982
983
983
982
978
975
980
984
987
980
977
977
978
981
982
983
983
987
989
995
999
1001
997
990
990
994
997
1000
1003
1005
1012
1019
1023
1023
1020
1013
1013
1013
1012
1008
1002
993
984
978
971
969
966
962
964
966
967
968
970
967
970
973
974
972
966
965
969
975
975
972
970
971
977
978
978
975
976
971
969
967
971
981
999
1029
1062
1098
1130
1165
1200
1231
1258
1276
1277
1256
1224
1197
1177
1158
1129
1095
1069
1055
1041
1025
1010
997
985
973
963
954
946
939
934
927
925
921
920
920
923
925
928
931
929
926
927
925
925
928
925
926
925
924
927
926
927
925
925
926
927
928
930
933
934
932
935
937
940
939
939
935
935
936
936
937
930
930
932
938
939
937
934
934
932
935
936
936
932
931
934
940
942
942
945
944
946
948
947
949
952
957
962
961
962
962
965
968
968
974
973
972
969
967
967
969
966
968
968
965
963
965
963
963
963
963
966
967
965
963
961
961
967
969
969
966
965
967
972
975
973
970
970
967
968
968
970
969
964
964
965
968
970
971
966
966
967
969
968
964
959
958
960
961
959
959
956
956
956
956
958
956
954
956
958
957
959
956
952
952
951
955
960
959
957
955
956
958
961
960
961
962
964
968
974
977
979
975
974
976
977
984
989
992
998
1001
1009
1010
1009
1009
1008
1005
1002
1000
998
994
991
983
972
961
956
956
957
957
958
957
956
954
956
959
958
960
958
955
956
956
959
963
964
962
961
963
964
966
961
957
952
956
962
972
993
1018
1052
1086
1122
1165
1206
1236
1256
1263
1242
1204
1174
1150
1131
1107
1079
1059
1046
1033
1018
1005
990
977
966
956
950
946
945
938
935
931
930
933
931
931
929
924
925
927
929
930
933
932
934
936
933
934
936
935
939
939
940
940
941
941
947
946
945
945
945
942
941
944
944
942
940
938
938
938
937
938
934
936
936
939
942
938
938
940
942
943
947
950
948
948
953
959
962
960
962
963
966
970
973
974
977
980
984
984
986
989
989
988
989
989
992
993
993
991
992
993
989
987
985
983
984
989
988
986
987
984
984
985
985
985
983
980
983
983
983
982
982
982
981
982
981
982
979
977
978
979
982
980
978
976
977
982
978
982
981
979
979
981
982
980
982
979
979
979
982
980
979
980
979
983
984
983
978
978
980
982
983
981
978
978
979
978
979
977
977
977
980
982
982
984
981
980
983
983
985
983
984
981
982
987
990
995
999
1001
1005
1008
1006
1002
1002
1005
1012
1016
1016
1016
1015
1016
1020
1023
1023
1019
1017
1016
1014
1014
1010
1004
996
984
974
966
965
962
961
960
959
961
962
960
958
957
958
960
961
962
960
961
962
965
963
964
963
961
962
968
967
969
966
963
962
961
962
964
975
994
1020
1053
1089
1128
1169
1202
1233
1255
1272
1274
1257
1224
1201
1187
1171
1151
1122
1091
1069
1055
1043
1023
1003
984
973
964
953
942
934
930
925
924
921
918
915
913
914
917
916
918
915
915
917
920
922
921
919
916
917
920
922
923
921
918
920
921
921
920
919
917
921
921
918
922
919
919
923
925
921
917
919
917
919
922
926
924
921
919
923
926
925
927
925
925
928
931
932
938
941
940
944
948
949
950
950
951
951
956
959
960
963
963
967
973
976
977
979
979
983
987
989
990
988
988
989
990
989
988
989
982
983
984
980
980
976
975
975
976
973
973
970
967
965
969
968
967
965
963
964
965
968
965
963
962
962
961
962
961
961
960
958
958
958
960
956
956
958
956
958
958
955
954
954
956
957
956
954
954
957
958
959
959
956
954
955
954
958
957
955
955
955
958
959
960
957
956
958
959
960
959
957
959
961
960
963
961
960
960
962
964
965
964
961
960
958
963
965
964
964
965
969
971
975
978
980
980
981
980
982
987
986
992
995
1001
1002
998
998
999
1002
1002
1000
996
993
991
991
987
979
969
961
953
950
950
946
946
944
944
946
949
948
948
944
946
947
950
951
952
950
950
949
953
955
956
956
955
956
955
959
956
953
954
953
954
959
965
981
1008
1043
1085
1125
1164
1198
1224
1250
1265
1270
1263
1237
1209
1182
1162
1132
1100
1069
1047
1035
1023
1006
986
970
957
950
941
934
927
922
919
917
916
915
913
912
911
911
914
914
915
915
913
914
916
918
916
918
918
920
920
919
919
914
915
916
919
921
919
915
916
917
919
921
922
919
917
916
918
921
921
916
917
918
919
920
921
921
922
923
928
927
928
929
930
932
938
940
940
938
936
941
946
950
955
955
958
962
967
969
972
974
974
979
981
984
983
982
980
982
982
982
980
980
976
975
976
976
969
969
966
966
970
966
965
964
963
963
964
964
966
961
958
957
959
961
962
958
956
958
958
959
961
957
953
955
956
956
956
956
956
957
957
957
954
951
950
954
954
955
955
953
954
957
957
961
957
956
955
955
957
955
957
957
955
956
957
959
962
956
957
960
959
958
958
959
957
959
959
961
960
958
955
960
961
962
962
962
960
961
967
971
973
973
973
977
976
978
976
982
984
986
989
992
994
997
994
999
1002
1001
995
993
990
991
995
990
983
972
961
956
954
952
952
951
948
952
952
951
952
950
949
953
952
953
954
954
956
958
957
958
960
961
960
958
962
963
965
965
961
961
963
967
974
983
1009
1039
1073
1109
1145
1180
1208
1233
1250
1263
1264
1255
1229
1203
1181
1165
1145
1118
1085
1062
1049
1038
1020
999
982
971
965
958
949
942
939
938
937
934
932
929
927
928
928
930
931
933
932
933
935
936
935
933
931
934
936
936
936
933
930
933
936
937
935
933
932
931
937
936
935
933
933
935
933
932
935
934
930
931
933
934
935
934
932
933
934
937
935
933
934
936
938
941
943
942
944
950
952
955
955
955
957
960
968
971
974
973
975
983
987
991
994
994
993
993
994
994
994
992
988
990
991
990
990
985
984
983
982
980
981
976
977
979
978
976
976
975
977
977
977
978
973
969
969
973
975
975
975
975
971
971
974
973
973
970
968
970
971
974
972
971
969
969
972
971
970
968
968
969
974
973
972
970
969
970
968
972
971
969
968
973
974
976
975
969
967
970
973
975
973
973
970
974
976
979
976
972
973
976
981
977
978
977
974
977
979
982
986
988
992
995
998
999
995
995
995
1000
1003
1007
1013
1012
1012
1016
1020
1016
1014
1010
1007
1009
1009
1007
1000
987
978
970
966
968
965
964
960
961
964
964
963
962
963
965
967
968
967
966
968
968
971
970
971
969
970
974
976
975
974
971
968
968
970
980
995
1017
1045
1083
1117
1154
1190
1216
1236
1255
1271
1277
1260
1229
1197
1174
1153
1126
1096
1075
1061
1047
1031
1014
999
985
974
965
958
951
944
941
935
934
932
932
933
931
932
932
932
934
936
933
934
937
939
941
941
939
936
936
939
939
939
939
940
940
940
941
940
937
938
938
940
941
939
940
938
942
942
944
941
939
937
939
941
941
944
942
939
943
944
949
946
947
947
951
956
958
959
960
962
965
968
973
973
972
978
983
985
987
990
994
995
999
1004
1004
1004
1003
1002
1006
1008
1009
1007
1005
1001
1003
1003
1005
1004
999
995
995
995
993
992
989
988
987
990
989
989
986
984
984
987
986
983
980
979
982
983
981
982
979
977
978
979
979
976
978
975
976
978
977
973
972
970
970
972
974
972
970
970
972
974
975
974
973
970
972
974
975
976
975
972
973
976
978
976
972
971
974
976
976
977
975
976
981
982
981
979
974
972
974
977
979
976
974
975
975
980
987
988
991
990
993
994
994
996
1000
1003
1006
1010
1012
1015
1016
1019
1020
1020
1019
1013
1008
1006
1007
1002
996
986
974
966
964
966
966
963
963
961
961
964
965
964
966
965
968
968
969
967
967
967
972
974
974
972
972
973
974
975
976
972
972
974
988
1015
1045
1077
1111
1152
1193
1229
1253
1268
1278
1272
1253
1229
1203
1176
1149
1113
1082
1063
1050
1036
1019
1000
989
979
969
957
950
943
943
941
940
937
934
932
934
934
935
933
935
934
936
935
935
935
935
938
939
938
939
938
939
934
937
936
939
939
938
937
937
939
941
939
938
933
936
940
939
942
939
938
937
937
941
942
942
939
939
941
942
943
945
947
951
950
950
951
953
954
956
960
964
964
966
968
973
979
981
984
984
984
989
995
1000
1000
999
997
1000
1003
1006
1003
1001
998
998
1001
1000
999
998
992
992
992
988
987
985
983
984
986
987
986
982
978
978
982
978
979
976
975
977
978
979
975
974
973
973
977
979
974
973
970
970
973
975
974
972
969
968
971
972
973
973
970
972
973
977
973
971
971
971
975
975
975
973
974
975
979
979
976
974
974
975
977
977
977
975
975
978
980
980
982
978
978
977
978
978
979
979
978
980
985
987
991
993
994
996
998
997
997
996
1000
1007
1012
1013
1017
1019
1020
1023
1022
1023
1019
1017
1013
1014
1016
1010
998
987
978
975
976
976
972
971
970
974
976
977
976
975
974
976
978
979
979
979
980
980
985
987
986
986
982
984
986
986
989
997
1022
1055
1095
1136
1179
1216
1247
1273
1286
1287
1270
1239
1206
1182
1166
1139
1107
1077
1058
1044
1026
1009
993
981
971
966
963
959
956
954
948
947
946
947
947
948
946
948
948
948
951
950
948
951
949
948
948
948
947
950
950
950
946
948
946
949
949
947
951
950
947
949
950
949
949
948
948
950
952
950
948
947
947
949
951
954
955
952
953
953
958
960
961
963
965
968
972
975
975
978
979
985
989
993
994
998
998
1003
1007
1011
1011
1011
1005
1008
1011
1010
1009
1005
1002
1001
1002
1001
1002
997
996
995
995
993
993
991
988
989
989
989
987
988
987
985
988
990
986
984
985
985
985
987
985
983
984
985
987
987
985
984
982
983
981
985
985
981
982
982
984
986
981
980
981
984
983
985
985
984
980
983
983
984
983
982
983
985
988
986
984
982
982
983
984
985
989
988
986
989
991
991
988
990
986
988
988
990
993
992
997
999
1005
1007
1007
1006
1002
1007
1013
1016
1020
1018
1018
1022
1026
1028
1029
1026
1024
1023
1022
1020
1016
1008
1003
993
986
979
975
973
970
973
975
979
974
973
971
974
976
980
979
975
973
975
977
980
978
979
979
979
982
982
982
982
980
978
982
987
1003
1024
1054
1088
1128
1168
1205
1236
1259
1282
1292
1286
1257
1225
1204
1181
1160
1129
1097
1076
1058
1041
1021
1005
990
974
963
957
952
950
945
941
936
939
940
942
939
938
936
940
942
942
939
939
937
941
943
945
947
946
943
944
944
943
944
945
942
942
946
944
944
944
942
942
944
945
946
946
944
944
944
945
945
944
945
947
950
951
952
950
952
954
956
961
962
965
967
970
977
979
980
980
981
986
991
994
997
1001
1003
1007
1010
1013
1011
1010
1007
1010
1011
1014
1012
1008
1006
1006
1007
1005
1006
1003
999
997
997
997
993
994
991
991
992
992
988
986
984
987
990
991
987
987
983
988
990
988
987
985
983
987
987
987
987
986
986
986
987
986
985
984
984
987
987
988
987
986
985
987
989
989
990
986
985
985
988
989
986
984
983
985
987
988
988
988
987
987
989
988
989
989
987
991
992
992
988
988
988
990
991
992
992
990
990
994
1002
1008
1012
1012
1008
1009
1008
1011
1015
1018
1020
1023
1026
1028
1027
1029
1031
1032
1030
1029
1027
1023
1021
1016
1010
1000
988
982
979
979
980
978
975
974
974
979
978
978
977
976
975
977
980
982
981
981
981
984
989
987
986
987
986
989
988
986
987
988
988
998
1018
1045
1080
1117
1158
1200
1238
1266
1287
1296
1287
1266
1242
1219
1198
1182
1156
1126
1099
1081
1068
1050
1029
1014
1001
992
979
966
955
954
951
948
947
944
941
942
940
941
942
943
942
946
946
944
943
940
943
944
949
948
945
944
944
949
951
952
951
946
944
945
946
946
945
943
943
944
945
950
948
944
946
945
944
948
948
946
944
946
949
950
947
947
948
951
954
955
957
957
960
965
967
971
973
974
977
980
986
991
990
992
995
1001
1003
1008
1011
1011
1011
1013
1016
1019
1017
1016
1015
1016
1015
1013
1010
1008
1007
1005
1006
1006
1004
999
999
999
1000
996
995
994
992
991
995
991
990
990
990
991
992
993
990
988
989
987
989
990
992
991
987
987
987
988
988
987
986
988
989
988
990
989
989
987
987
988
987
988
987
990
991
991
990
986
988
991
993
994
994
992
990
990
993
994
991
989
988
991
992
995
991
992
990
991
991
994
993
994
994
996
1003
1006
1010
1010
1007
1011
1012
1017
1021
1024
1023
1028
1030
1033
1033
1033
1032
1031
1028
1026
1023
1022
1019
1011
1004
992
984
980
976
981
986
986
985
983
979
983
985
983
982
982
982
983
985
984
986
986
983
988
988
990
991
988
988
989
990
990
988
998
1020
1052
1086
1123
1164
1199
1234
1264
1285
1292
1283
1257
1228
1207
1195
1178
1150
1116
1085
1069
1058
1042
1026
1003
994
984
976
970
963
960
956
954
952
952
950
948
946
949
950
952
951
952
952
954
954
951
952
952
953
954
956
956
955
954
950
956
956
959
955
950
950
951
953
954
952
953
951
955
955
952
951
949
950
951
952
952
952
951
951
954
957
956
959
957
956
959
961
966
969
969
968
972
975
979
979
981
984
988
992
994
995
998
1001
1006
1009
1010
1010
1010
1010
1013
1016
1014
1013
1011
1011
1010
1013
1012
1008
1007
1005
1003
1002
1004
1002
1000
997
997
997
995
993
992
990
990
994
992
990
990
989
991
991
992
992
988
990
989
989
990
991
987
983
984
987
989
989
988
989
990
987
989
989
987
986
988
989
988
989
986
987
988
992
991
988
985
986
986
990
992
993
989
986
987
988
991
990
986
984
987
991
990
991
989
989
991
992
992
990
988
991
992
992
993
994
995
999
1001
1005
1007
1006
1002
1003
1011
1018
1021
1020
1022
1022
1026
1031
1033
1033
1032
1027
1027
1027
1025
1024
1018
1008
999
991
985
982
982
981
980
981
982
980
980
979
980
982
984
984
985
982
984
985
986
985
984
987
986
986
989
987
987
983
984
988
994
1006
1029
1062
1100
1139
1178
1217
1246
1265
1278
1285
1275
1244
1214
1190
1177
1166
1142
1110
1082
1065
1055
1041
1025
1008
996
989
981
974
971
970
968
966
962
961
958
958
958
959
958
960
960
960
958
960
962
964
964
964
961
958
961
963
964
964
962
958
960
964
963
961
961
958
959
962
960
959
956
955
957
960
958
958
959
958
958
955
958
956
956
956
958
961
962
961
963
963
968
971
974
974
972
974
976
984
986
985
987
990
995
1002
1006
1008
1010
1010
1013
1018
1021
1024
1019
1019
1021
1023
1023
1020
1019
1018
1019
1019
1017
1014
1010
1010
1008
1008
1008
1005
1000
998
1003
1006
1007
1002
999
995
993
998
999
998
996
995
998
1002
1001
1001
1001
998
999
997
1002
1000
1001
999
998
998
996
997
995
996
993
994
994
995
996
1000
1003
1006
1006
1008
1014
1021
1035
1053
1070
1086
1105
1130
1161
1192
1217
1240
1267
1302
1339
1372
1399
1414
1417
1407
1371
1315
1259
1213
1171
1128
1084
1041
1001
972
954
950
949
951
951
951
950
947
949
952
957
957
957
954
954
952
950
948
948
942
939
936
935
934
935
937
936
928
923
914
910
908
911
914
913
911
911
907
908
913
911
911
909
909
908
909
910
910
910
906
904
906
903
904
904
906
907
910
911
906
911
910
909
915
916
916
915
914
919
924
928
928
929
931
935
938
943
944
945
946
952
958
963
965
964
966
971
974
981
984
984
982
986
990
992
991
990
987
990
994
993
994
990
990
992
995
995
995
994
991
994
996
995
994
993
995
996
997
998
995
993
992
996
995
995
995
993
992
995
998
999
998
996
996
997
1001
1001
1000
997
993
994
998
1000
996
994
992
998
1000
997
996
994
993
992
993
994
993
992
993
996
998
999
996
994
991
993
994
995
992
992
990
990
994
997
997
995
995
994
995
998
999
998
994
992
997
995
997
991
990
993
997
997
997
994
991
996
997
998
998
995
993
994
999
998
997
998
997
995
994
995
996
995
995
995
999
999
1000
996
995
996
1000
998
996
992
992
993
994
997
995
995
995
997
997
997
997
998
995
996
997
999
999
994
995
999
998
997
998
998
996
997
1000
1000
1000
996
992
993
997
995
996
993
993
997
998
998
998
998
993
997
998
997
997
996
997
999
1001
1001
1006
1008
1009
1016
1022
1023
1023
1019
1017
1020
1027
1031
1030
1031
1029
1032
1036
1041
1042
1039
1036
1037
1037
1038
1032
1026
1022
1016
1010
1002
993
987
984
987
986
987
984
985
982
983
986
986
985
984
985
991
992
992
991
989
987
992
995
994
992
994
992
993
995
994
994
997
1003
1016
1034
1063
1096
1130
1169
1201
1235
1258
1275
1291
1304
1305
1283
1246
1211
1194
1174
1153
1127
1100
1080
1062
1044
1027
1013
1004
991
980
969
962
960
960
958
953
948
948
948
950
948
945
944
947
949
950
949
950
948
952
951
955
954
950
951
954
956
957
955
950
950
952
953
956
954
954
952
953
953
955
955
955
955
956
955
956
954
953
952
955
958
960
958
956
954
957
959
964
963
967
967
969
972
974
975
976
978
981
986
989
988
992
997
1004
1008
1010
1012
1008
1014
1020
1025
1028
1028
1028
1031
1036
1040
1041
1042
1042
1039
1039
1041
1044
1041
1036
1033
1034
1034
1031
1029
1026
1021
1020
1018
1016
1013
1010
1006
1007
1006
1002
996
997
997
997
998
995
992
989
989
992
993
991
991
988
989
987
988
992
993
986
985
986
989
989
988
987
986
987
988
988
987
985
984
982
985
988
986
986
985
990
988
988
988
984
985
986
987
990
992
991
988
989
990
992
993
991
988
991
992
993
993
991
993
994
997
1001
1005
1008
1008
1014
1018
1017
1015
1017
1020
1023
1026
1027
1031
1031
1034
1035
1036
1036
1033
1029
1028
1026
1023
1016
1004
994
988
983
981
979
977
973
969
971
972
975
977
974
974
977
981
979
977
977
974
980
982
986
985
983
982
984
986
985
981
977
977
980
986
1001
1027
1058
1094
1131
1172
1208
1241
1264
1282
1293
1290
1261
1231
1207
1181
1161
1135
1106
1083
1066
1049
1033
1016
1002
985
971
961
956
956
953
950
943
939
942
943
943
944
942
942
944
945
945
944
943
946
948
949
950
946
946
947
949
949
947
947
947
947
948
950
950
949
948
945
947
947
949
949
946
945
949
949
950
949
947
946
947
946
949
952
951
953
953
954
953
956
956
960
963
963
962
960
959
962
970
977
982
983
980
980
988
992
997
999
1000
999
1001
1006
1008
1007
1004
1003
1004
1006
1007
1004
1001
999
998
999
996
996
994
990
989
986
986
987
987
987
987
989
989
987
985
985
987
989
987
988
983
983
985
988
988
987
986
988
989
990
989
987
984
983
987
989
991
989
989
986
987
989
991
990
989
986
987
988
990
987
988
986
990
989
987
987
986
984
987
988
989
987
985
984
985
985
985
985
985
984
985
986
986
985
983
985
989
994
997
999
1003
1006
1011
1011
1011
1007
1009
1011
1016
1023
1030
1027
1028
1028
1027
1026
1025
1020
1017
1012
1011
1006
993
982
971
967
967
968
968
967
965
963
968
970
971
971
970
968
970
972
974
975
971
972
976
981
984
979
977
974
975
971
973
971
975
987
1012
1049
1087
1127
1165
1206
1240
1267
1286
1286
1263
1231
1208
1186
1160
1122
1093
1074
1060
1045
1025
1006
991
975
962
957
957
952
946
937
938
939
937
935
936
933
935
940
939
938
937
937
940
943
941
942
932
934
935
941
940
940
940
940
937
938
937
935
936
938
943
944
944
941
934
936
934
939
939
938
937
934
939
941
942
944
945
945
950
949
953
953
956
961
962
965
970
971
973
976
981
987
989
991
994
996
999
1007
1007
1010
1010
1008
1009
1010
1011
1009
1005
1004
1006
1006
1006
1003
1000
996
995
993
991
990
988
980
983
985
985
984
983
983
983
988
987
983
977
975
978
981
983
983
981
981
984
984
982
982
981
980
982
983
983
979
981
980
981
983
982
979
978
978
979
979
978
978
977
975
973
976
977
980
979
979
976
979
979
977
974
973
975
978
980
978
977
976
978
980
980
979
979
978
977
981
983
988
990
997
1003
1004
1003
999
1001
1004
1010
1016
1014
1013
1017
1021
1026
1026
1022
1016
1014
1013
1014
1011
1006
996
981
972
966
966
964
963
962
959
963
964
966
964
963
963
967
964
965
963
960
963
967
968
967
966
966
966
969
971
966
962
958
959
969
985
1013
1042
1075
1115
1156
1194
1224
1246
1266
1272
1261
1239
1214
1186
1161
1124
1096
1078
1066
1050
1030
1007
992
979
969
960
949
942
939
934
930
929
923
923
922
924
929
932
930
928
930
931
931
932
933
932
933
933
932
936
935
934
935
938
936
932
932
931
936
935
934
934
931
929
930
931
932
930
929
930
930
932
932
930
928
930
933
938
939
939
941
941
943
947
948
950
951
955
961
967
970
971
972
973
975
981
983
985
987
989
992
992
994
993
992
991
992
991
991
988
990
987
988
986
985
982
978
976
979
983
982
978
977
977
977
977
977
974
972
972
974
975
973
969
971
968
972
971
972
970
969
969
969
968
971
973
972
971
968
973
971
970
970
970
970
973
972
971
970
969
970
970
967
967
965
965
966
967
968
966
966
964
968
969
968
968
966
964
966
967
969
966
961
963
962
967
968
968
964
964
967
973
976
980
979
981
981
982
981
983
988
994
998
1002
1002
1005
1007
1006
1007
1008
1006
1000
999
996
995
990
981
970
959
953
954
956
956
954
952
950
953
957
960
959
955
956
960
961
959
956
956
958
959
961
962
964
961
960
961
959
955
950
951
963
985
1015
1048
1080
1116
1157
1195
1230
1254
1265
1259
1241
1214
1194
1174
1147
1115
1086
1068
1060
1049
1033
1012
993
978
969
957
944
937
931
926
925
924
920
918
917
919
921
920
918
920
918
921
924
923
921
923
923
925
927
926
925
923
923
925
928
929
927
926
924
925
928
926
924
924
923
923
925
926
926
923
922
925
930
933
931
930
929
931
931
931
935
937
937
945
950
956
959
963
962
966
968
972
975
979
981
985
989
991
992
991
994
996
998
997
996
996
995
994
994
993
991
985
983
982
984
984
984
982
980
982
983
980
977
975
974
974
975
975
975
975
972
974
975
977
976
977
975
979
980
979
976
975
972
976
977
976
973
973
973
975
979
977
976
976
979
986
988
983
976
970
969
971
975
974
976
974
971
973
973
970
969
971
970
973
974
973
970
968
965
966
969
971
974
971
972
973
977
981
988
991
992
993
993
990
993
996
1003
1013
1017
1021
1028
1035
1035
1035
1031
1026
1024
1019
1015
1015
1011
1008
996
983
973
971
973
974
973
969
966
968
971
970
970
966
967
968
970
971
970
970
969
971
974
973
973
975
976
978
975
970
969
966
969
986
1009
1039
1066
1094
1125
1162
1198
1230
1251
1263
1265
1248
1222
1197
1177
1158
1135
1105
1086
1073
1056
1041
1022
1006
996
982
972
964
954
950
946
942
938
936
933
934
936
934
935
935
936
938
939
938
937
936
936
937
938
937
936
935
933
938
940
945
943
940
937
938
941
943
941
938
938
937
938
941
939
939
937
938
939
939
939
935
933
936
936
934
936
936
935
938
942
941
941
940
939
943
945
950
953
951
951
956
960
963
967
970
972
977
981
981
982
984
988
992
994
993
993
992
993
996
999
1000
995
993
991
992
993
991
987
986
985
988
987
987
987
982
980
981
979
980
978
976
973
973
978
977
975
976
976
976
978
974
975
976
974
976
977
978
975
978
979
984
984
984
984
981
985
986
988
991
987
986
985
988
990
992
989
989
986
986
990
989
988
984
982
984
987
987
987
987
987
988
990
991
989
988
988
988
988
987
986
986
985
986
986
987
988
988
991
996
1001
1001
1003
1003
1002
1004
1008
1011
1012
1013
1013
1019
1028
1030
1027
1023
1020
1020
1021
1022
1015
1009
1005
994
986
979
972
971
969
969
967
967
966
965
966
969
974
972
970
970
968
967
971
970
968
967
968
974
978
981
981
976
973
971
972
970
967
969
975
988
1011
1039
1071
1108
1147
1186
1219
1244
1265
1278
1276
1257
1228
1202
1180
1158
1132
1102
1083
1071
1061
1042
1022
1008
998
987
976
958
949
948
949
943
938
933
933
935
939
936
933
931
933
935
937
935
934
932
932
936
935
939
936
935
935
939
940
940
941
940
939
938
943
944
943
938
937
938
939
938
937
935
937
937
939
937
938
933
933
937
939
942
940
940
942
946
948
949
949
950
953
958
965
967
967
968
964
967
970
975
978
979
980
983
988
988
989
992
996
999
1002
1003
1002
998
996
999
1000
999
997
995
994
995
993
991
990
987
984
983
983
984
982
980
976
979
982
982
982
980
977
975
977
977
976
973
972
972
972
969
967
967
963
966
969
967
965
963
960
962
965
965
963
960
957
959
962
960
958
957
956
959
964
962
963
962
961
964
962
964
963
962
965
965
968
967
969
967
967
972
974
973
973
969
968
970
972
971
972
970
968
968
970
971
972
971
971
970
973
970
968
969
973
980
981
981
981
980
977
977
981
984
988
992
990
996
1002
1003
1004
1006
1003
1003
1002
1000
996
996
992
991
983
975
965
958
953
955
954
954
952
952
951
952
952
951
952
953
954
956
957
956
958
954
954
958
959
962
958
958
959
960
963
957
956
956
963
981
1011
1048
1085
1120
1161
1197
1226
1249
1268
1281
1273
1250
1221
1193
1174
1149
1116
1080
1051
1039
1029
1014
995
981
968
961
952
943
936
935
933
929
929
924
917
917
927
929
934
938
942
944
943
945
947
950
947
946
944
952
958
954
949
952
956
958
956
956
952
957
959
959
956
956
954
957
963
961
957
951
953
953
957
957
955
955
950
950
953
953
954
957
959
962
965
966
967
971
969
976
982
983
981
982
983
988
994
996
997
996
998
1003
1006
1010
1010
1012
1009
1011
1012
1016
1014
1008
1007
1009
1010
1008
1006
1004
1004
1004
1005
1002
1001
994
996
999
999
998
995
991
991
995
997
996
995
996
994
994
993
993
991
988
988
990
990
988
983
985
986
990
990
988
986
982
982
987
989
989
984
979
979
982
982
980
978
976
975
973
975
973
975
975
976
977
975
975
974
969
968
969
970
972
972
973
974
974
976
976
977
975
977
975
976
974
973
971
969
972
977
978
978
976
974
974
981
985
986
985
985
986
988
988
988
990
994
1001
1007
1009
1009
1007
1010
1012
1012
1006
1001
1001
1001
1002
1002
993
981
967
964
963
963
959
959
957
958
959
960
957
953
954
955
957
959
956
953
953
955
959
959
961
961
960
961
969
972
970
967
965
965
970
976
986
1008
1036
1068
1110
1154
1195
1226
1249
1271
1285
1287
1270
1245
1219
1193
1175
1155
1125
1099
1078
1065
1054
1041
1022
1005
990
984
981
977
969
964
961
958
957
959
957
953
951
953
958
959
958
956
957
957
957
960
958
961
958
959
960
964
964
962
957
958
960
963
966
963
964
963
964
966
965
964
964
963
965
967
963
960
957
958
961
963
963
958
956
956
958
957
960
959
960
960
962
965
966
971
970
972
974
980
982
984
992
995
1001
1006
1008
1008
1008
1011
1016
1021
1019
1020
1018
1020
1020
1021
1019
1018
1017
1014
1017
1013
1014
1012
1006
1004
999
998
997
996
993
991
991
991
987
988
987
984
986
987
984
983
980
978
978
977
977
974
974
972
975
979
978
975
973
974
976
977
976
973
973
974
974
975
970
971
970
968
970
972
973
974
971
967
967
972
971
969
967
967
973
973
972
969
968
966
972
973
973
970
967
966
969
972
970
969
967
966
970
974
974
976
981
983
985
988
987
984
981
982
987
996
1000
1003
1002
1001
1003
1009
1011
1009
1003
1000
1002
1002
1002
1000
992
981
973
967
963
964
961
959
959
958
958
958
958
958
962
962
962
963
962
964
963
964
963
962
962
966
970
969
969
968
964
964
966
970
978
993
1013
1044
1078
1114
1148
1186
1218
1245
1266
1278
1269
1243
1208
1180
1161
1141
1107
1076
1055
1047
1037
1023
1002
991
981
973
967
958
950
946
942
941
940
939
940
938
936
937
938
941
943
941
941
939
943
946
947
947
944
941
944
946
947
943
944
941
942
943
944
946
943
940
944
945
944
943
944
943
943
944
943
939
941
939
942
944
944
943
942
944
947
950
949
947
946
946
950
955
957
956
957
956
960
965
969
969
972
973
976
980
984
988
990
994
999
999
1000
1000
999
1000
1001
1004
1005
1004
1002
998
998
998
998
997
994
992
990
990
991
990
987
986
988
988
988
986
984
983
983
986
984
983
983
982
985
985
985
982
981
980
982
981
982
981
977
978
977
981
981
980
977
978
977
982
981
981
979
977
980
981
981
980
981
978
976
978
979
982
980
980
983
984
980
982
981
982
983
983
984
982
981
977
981
981
983
981
979
977
981
982
982
980
977
980
982
987
991
995
996
998
1001
1001
1002
1003
1003
1004
1012
1014
1016
1016
1017
1019
1017
1018
1017
1016
1013
1013
1015
1013
1007
994
978
972
965
969
968
964
964
964
964
967
967
967
963
966
964
964
965
965
965
965
965
966
970
968
965
965
968
971
969
966
966
965
968
977
990
1014
1041
1074
1114
1154
1193
1223
1245
1264
1276
1268
1240
1211
1186
1170
1153
1128
1100
1070
1056
1041
1024
1004
990
977
968
958
950
945
941
935
929
927
927
928
931
928
925
925
926
928
929
932
929
928
930
931
931
932
930
931
933
935
936
935
932
931
933
933
933
931
931
932
931
934
932
930
929
930
932
934
936
933
932
930
932
936
936
937
935
935
935
937
942
941
941
942
944
948
951
954
955
957
958
964
966
967
969
972
976
981
984
988
988
992
995
996
997
999
996
995
999
998
997
995
993
989
990
991
992
989
985
985
983
983
988
982
977
978
977
979
979
979
977
976
977
979
978
976
975
973
976
978
977
976
971
972
974
974
977
975
972
971
972
976
974
972
972
969
969
972
974
975
970
970
970
974
976
977
974
972
971
974
976
974
976
972
974
974
974
972
972
973
972
980
977
974
977
973
977
977
978
979
975
975
979
979
980
979
979
981
988
994
998
997
997
994
993
998
1001
1005
1008
1008
1010
1014
1014
1016
1018
1018
1017
1016
1013
1008
1001
995
987
978
970
965
963
962
962
966
967
964
961
961
963
965
970
964
963
965
966
968
970
970
968
966
970
972
971
974
972
967
968
969
973
980
996
1023
1061
1103
1146
1189
1224
1249
1269
1286
1286
1268
1238
1210
1187
1161
1127
1089
1065
1050
1037
1018
1000
985
972
959
952
945
943
940
937
934
930
929
929
930
927
928
932
934
936
936
935
931
931
934
937
937
934
933
935
934
936
935
934
934
931
935
933
933
931
931
933
933
934
931
932
931
935
935
935
932
932
934
937
943
943
944
942
945
950
954
955
955
954
957
962
968
970
969
968
972
978
983
986
987
990
990
993
996
998
1002
1001
999
1002
1002
1000
999
996
997
997
996
992
992
989
988
989
989
988
985
978
979
981
982
983
981
979
979
979
980
978
976
974
974
980
978
978
974
971
972
973
976
975
975
971
970
971
973
975
972
971
969
971
972
972
973
971
972
970
972
970
968
970
968
969
972
971
970
969
969
970
974
971
968
966
967
970
970
968
966
969
969
971
974
973
971
967
967
970
976
977
978
980
984
987
986
986
983
984
986
994
1000
1002
1003
1002
1006
1007
1008
1006
1003
1001
1001
997
995
988
981
973
967
957
956
955
953
954
953
954
955
953
956
953
955
957
958
955
959
959
960
958
961
964
966
964
965
967
970
967
963
962
961
967
974
993
1019
1051
1090
1134
1176
1211
1239
1256
1264
1259
1240
1208
1184
1162
1142
1117
1082
1049
1031
1021
1005
988
975
964
955
947
943
939
936
937
933
929
924
923
923
924
921
921
922
926
927
927
923
923
923
928
932
932
932
928
922
924
922
923
926
927
923
923
924
926
925
924
923
923
926
923
922
920
919
922
927
928
927
926
924
927
933
933
931
932
928
933
941
944
944
945
947
952
957
958
960
959
962
967
972
975
977
977
981
987
992
992
991
992
989
993
994
994
994
993
991
991
992
988
987
984
982
984
981
983
979
978
978
981
981
983
980
977
975
980
980
976
976
974
976
978
979
976
975
974
973
974
977
976
975
975
972
973
976
976
976
974
973
976
978
977
976
973
972
972
976
975
974
975
974
977
978
976
976
974
973
975
977
977
974
972
978
980
983
981
977
977
977
977
976
976
977
975
976
978
980
981
982
985
985
990
998
998
996
992
992
997
1005
1007
1009
1010
1011
1018
1020
1022
1016
1014
1009
1011
1012
1007
1000
992
982
975
971
966
963
962
963
965
967
966
966
967
968
972
972
969
967
968
968
975
975
977
977
976
972
979
979
978
976
973
976
981
998
1026
1057
1089
1124
1166
1208
1237
1262
1274
1278
1261
1235
1204
1179
1154
1119
1086
1064
1056
1049
1038
1020
1001
990
981
969
960
951
948
948
945
944
938
935
934
938
940
939
936
937
940
942
943
942
940
940
944
947
946
941
940
937
940
944
946
945
947
946
948
946
947
946
944
942
944
946
947
947
941
938
939
943
945
943
947
944
946
947
948
951
950
951
953
955
955
962
964
967
972
978
978
981
981
982
986
989
992
996
997
998
1002
1006
1007
1007
1007
1007
1005
1009
1007
1008
1005
1001
1000
999
999
999
992
991
991
990
988
987
986
983
983
983
982
982
980
980
982
983
983
983
983
982
984
984
983
983
981
981
982
985
985
984
980
984
984
988
986
984
983
980
984
985
984
985
983
984
984
986
988
989
986
984
983
987
988
990
988
986
986
991
988
987
982
981
983
986
985
985
985
985
983
984
986
984
983
983
985
985
985
986
987
991
997
1002
1005
1002
999
998
1003
1006
1011
1010
1012
1012
1018
1022
1026
1022
1021
1021
1022
1020
1019
1014
1006
998
986
980
974
972
970
967
965
968
967
966
968
968
971
970
968
968
969
967
971
973
974
968
970
970
973
975
976
973
973
971
973
974
979
989
1006
1027
1065
1101
1140
1178
1213
1239
1260
1276
1280
1264
1236
1208
1185
1166
1139
1107
1079
1064
1044
1033
1014
996
982
972
965
957
951
945
941
938
939
938
938
939
936
936
937
938
939
938
938
935
940
942
943
942
942
943
942
944
942
939
938
939
940
943
943
942
941
940
940
940
940
943
940
937
942
945
944
940
939
937
939
943
944
947
943
943
944
945
946
945
946
948
950
954
955
954
958
961
964
970
971
970
972
976
981
984
986
990
989
992
999
1002
1002
1003
1005
1003
1007
1009
1014
1008
1008
1004
1004
1006
1004
1002
1004
1000
997
996
995
998
996
992
990
991
987
983
983
983
982
978
977
975
977
980
980
979
983
989
986
988
992
995
994
989
987
985
989
991
991
991
992
993
992
992
994
997
996
997
998
1001
999
1000
1000
1002
1003
1006
1005
1004
1001
1002
1002
1005
1003
1001
998
996
999
1002
997
1000
996
995
998
1000
999
999
997
995
999
1001
1002
1000
1002
1001
1003
1004
1005
1004
1010
1016
1024
1027
1026
1023
1018
1015
1018
1026
1027
1030
1027
1027
1032
1036
1040
1036
1035
1032
1034
1031
1027
1021
1013
1002
996
993
992
988
983
982
986
990
992
989
983
985
982
987
988
986
985
980
984
987
988
988
987
985
988
992
992
989
986
981
981
984
986
995
1013
1038
1075
1115
1155
1200
1235
1260
1283
1297
1286
1254
1226
1203
1187
1172
1145
1113
1091
1078
1067
1048
1027
1011
998
985
975
967
959
955
951
951
944
944
942
943
942
940
942
943
943
941
940
940
941
945
942
944
943
942
947
947
944
941
941
942
947
950
948
946
944
944
946
950
949
950
949
948
948
950
950
948
947
947
951
952
953
953
951
952
954
956
955
957
955
955
960
961
965
965
966
967
973
978
978
980
982
984
989
994
993
993
996
1000
1003
1007
1009
1011
1011
1010
1010
1015
1014
1013
1009
1009
1009
1010
1007
1005
1003
1001
1001
1001
999
997
995
995
992
993
992
989
986
982
986
989
990
987
981
980
984
984
985
983
983
982
983
983
982
982
982
982
984
983
981
981
981
981
978
982
983
980
981
980
984
986
985
985
981
982
982
981
980
983
982
982
981
982
981
982
979
980
981
982
982
980
977
975
980
980
982
981
979
979
978
979
979
982
982
979
980
984
986
985
982
980
981
982
987
987
990
996
1001
1006
1010
1007
1002
997
1004
1011
1014
1015
1016
1014
1017
1023
1028
1028
1023
1022
1021
1021
1019
1017
1013
1009
1003
997
986
975
969
969
969
968
967
967
964
963
962
968
968
970
967
966
966
968
970
971
971
971
969
972
973
973
971
970
971
973
971
968
965
965
970
984
1004
1031
1065
1100
1144
1183
1217
1243
1265
1277
1273
1256
1227
1200
1182
1161
1134
1106
1084
1070
1056
1041
1024
1006
995
980
966
955
948
945
941
939
933
930
933
934
933
932
931
934
935
939
937
936
936
936
938
940
941
937
938
937
940
942
942
938
938
938
942
943
944
941
938
936
937
938
940
939
937
935
935
935
933
935
934
934
934
935
937
935
931
935
939
942
942
941
942
947
952
956
953
952
955
956
960
964
971
977
977
976
978
984
989
994
995
995
999
1000
1002
1003
1001
1003
1002
1006
1006
1002
997
994
995
996
996
994
989
986
988
990
989
985
984
982
984
983
985
982
981
979
982
981
980
981
981
983
982
983
981
979
979
981
982
984
981
979
976
975
978
979
979
975
973
973
975
978
979
976
973
973
974
974
975
976
973
970
971
971
970
971
969
972
971
972
973
971
968
969
971
975
976
972
971
969
970
971
971
967
969
968
970
970
972
970
970
969
970
971
971
970
971
975
981
988
989
992
988
985
986
988
992
995
997
996
1000
1006
1009
1008
1007
1005
1002
1002
1001
999
999
996
990
982
969
960
955
952
953
953
952
951
950
952
953
952
952
951
952
952
952
952
952
951
950
952
953
956
958
953
954
952
954
954
955
950
947
946
949
962
977
1000
1027
1062
1104
1146
1185
1219
1246
1264
1269
1258
1231
1207
1181
1154
1126
1091
1060
1044
1037
1025
1005
989
977
966
955
941
933
931
929
924
917
917
915
917
918
914
912
913
913
915
914
912
914
914
915
916
915
916
913
915
917
919
918
917
918
915
920
922
924
921
918
915
919
922
920
921
921
921
919
918
918
919
915
917
917
920
921
922
919
917
918
921
923
922
922
927
931
934
934
936
939
942
946
949
950
949
951
953
959
966
968
971
971
972
977
982
981
980
980
980
980
978
980
976
975
977
975
977
975
973
969
970
970
967
967
966
961
960
963
964
965
963
962
960
965
967
967
962
961
957
962
963
964
963
960
957
962
966
965
964
961
960
962
965
965
965
964
961
964
962
966
963
965
964
966
964
968
967
966
968
968
972
969
969
968
967
969
969
972
969
969
970
971
970
974
971
970
970
973
974
974
972
970
969
970
974
977
978
976
974
980
984
987
990
990
991
996
992
994
998
1003
1006
1010
1013
1014
1015
1017
1020
1020
1016
1014
1011
1010
1007
1004
997
986
973
967
963
965
964
964
960
964
961
962
966
967
965
962
963
961
964
966
966
968
963
967
967
969
968
968
965
968
967
962
962
963
975
995
1026
1062
1098
1138
1178
1213
1241
1257
1268
1264
1243
1217
1193
1173
1153
1127
1097
1074
1061
1047
1027
1009
989
978
968
961
949
939
934
931
930
929
927
924
921
922
923
923
925
924
924
926
927
928
927
928
928
930
932
931
928
927
928
930
932
931
931
929
928
933
933
931
929
927
926
927
928
928
930
926
925
926
930
930
929
928
928
930
932
932
931
931
935
938
940
941
941
942
942
947
953
955
954
957
963
969
969
975
975
977
981
984
988
991
991
990
992
993
997
997
993
996
993
993
994
994
991
986
984
983
983
982
980
978
974
976
977
975
973
970
970
972
973
973
972
971
970
972
975
970
968
967
966
969
969
969
967
966
962
965
968
969
966
964
963
962
965
967
965
966
966
967
968
968
965
966
967
969
970
970
969
970
969
971
970
971
970
971
970
976
975
974
970
971
970
973
975
973
972
973
971
975
976
975
975
974
970
974
980
983
984
989
992
993
994
994
995
999
1004
1007
1014
1015
1016
1016
1016
1017
1019
1016
1015
1009
1008
1005
999
987
976
965
962
964
964
963
963
961
961
963
965
965
963
962
963
965
965
965
965
965
968
971
972
971
972
969
966
966
965
966
969
983
1011
1049
1084
1125
1163
1200
1230
1256
1275
1272
1246
1220
1193
1178
1159
1130
1096
1073
1060
1046
1029
1008
993
974
957
949
946
941
938
929
926
927
928
926
925
926
924
931
931
933
931
931
930
933
934
933
934
932
930
933
934
932
931
933
930
937
936
935
932
933
933
935
936
935
935
932
936
937
937
936
935
934
934
937
940
940
942
940
940
944
948
950
950
950
950
953
960
962
964
962
964
971
978
980
984
982
982
988
996
998
999
997
997
1000
1001
1001
1002
999
997
998
996
995
991
991
988
989
988
985
985
981
982
980
982
982
979
977
976
978
982
982
980
977
975
978
979
977
977
970
971
974
975
976
975
972
973
974
976
976
973
972
971
974
977
977
975
974
972
971
972
973
973
972
970
971
974
975
974
971
970
972
972
972
974
972
972
972
975
974
973
971
973
973
976
975
975
975
973
975
976
976
977
976
979
983
990
991
993
996
994
995
997
1002
1004
1007
1006
1011
1013
1017
1015
1015
1015
1016
1015
1015
1011
1006
998
991
980
973
967
965
960
961
963
961
962
960
960
962
963
963
963
963
965
965
966
965
967
964
966
969
972
973
974
969
965
963
965
965
970
980
997
1029
1064
1100
1145
1184
1221
1250
1267
1268
1249
1219
1192
1175
1158
1132
1103
1080
1068
1060
1045
1025
1005
988
974
963
955
946
937
932
932
931
930
929
927
921
925
927
930
930
926
927
925
929
931
933
930
929
929
930
933
931
933
931
931
932
934
934
933
930
930
929
933
931
930
929
928
928
930
929
929
930
927
929
931
929
931
931
932
933
936
937
938
941
942
947
952
953
953
953
952
959
964
967
968
966
970
974
981
983
984
985
986
987
991
992
991
988
988
989
990
993
988
987
984
984
982
981
980
976
978
979
977
975
971
969
970
973
972
970
968
963
962
963
967
970
965
964
961
963
963
964
962
963
960
961
962
962
960
959
958
960
961
960
959
956
958
960
961
960
959
959
960
963
964
964
963
962
958
962
962
964
961
959
958
961
962
963
961
962
958
958
960
962
963
960
956
959
961
964
964
962
961
964
964
961
966
965
967
976
980
982
978
975
975
984
989
991
994
994
995
1000
1006
1007
1005
998
995
995
995
995
990
985
976
968
959
954
953
951
949
948
949
950
951
950
948
953
954
957
953
952
952
954
956
958
957
956
956
959
958
961
963
961
956
956
957
960
967
976
998
1033
1064
1094
1124
1157
1190
1220
1244
1256
1251
1233
1202
1177
1156
1127
1097
1066
1050
1042
1027
1009
989
975
966
960
952
946
937
933
931
930
930
929
928
925
923
926
928
930
930
930
928
932
931
933
929
930
929
933
936
936
932
931
932
934
933
935
934
934
934
932
937
934
934
932
931
934
935
934
933
932
932
935
935
936
934
930
931
934
941
942
942
941
942
942
946
949
948
952
953
955
960
964
964
968
969
975
978
979
983
984
985
989
993
995
996
993
993
995
999
996
996
990
986
992
992
988
986
982
980
983
982
984
981
982
981
981
983
978
977
977
978
978
980
977
976
976
976
978
977
979
975
976
973
976
978
976
977
972
971
977
975
976
974
974
973
977
980
978
975
973
972
975
977
975
974
972
972
975
977
975
975
974
973
974
975
975
975
974
972
974
976
974
974
974
973
976
976
975
973
975
976
978
981
982
981
986
990
997
1000
994
991
988
994
1003
1008
1009
1008
1010
1012
1016
1017
1016
1015
1010
1007
1009
1005
1000
993
980
970
963
964
964
963
961
962
966
963
963
964
963
962
965
966
967
968
967
966
969
970
968
967
967
969
971
973
973
968
965
964
969
983
1000
1027
1057
1087
1127
1166
1203
1230
1251
1267
1277
1267
1241
1214
1191
1172
1151
1123
1096
1076
1063
1053
1038
1022
1004
991
976
963
954
948
942
938
933
927
927
928
927
928
926
923
926
931
928
929
928
928
930
931
934
933
932
930
932
931
934
931
933
932
935
937
934
933
930
930
933
935
933
933
931
932
936
935
935
932
930
929
931
935
937
935
934
935
938
939
941
942
942
941
945
947
951
951
953
953
960
960
963
963
964
970
974
982
983
984
985
986
989
995
995
997
999
999
1002
1003
1005
1002
998
995
995
995
995
992
989
989
987
988
987
987
985
980
982
985
983
981
977
978
982
980
979
977
977
977
975
976
977
974
973
970
971
976
972
972
970
967
969
970
971
970
969
966
969
971
972
972
973
969
971
973
973
972
972
973
971
972
972
972
973
972
974
973
973
972
971
971
975
975
974
974
970
972
975
975
973
972
970
971
976
977
976
977
973
974
976
977
982
986
989
992
996
995
992
992
994
994
1003
1004
1009
1010
1010
1011
1015
1019
1018
1015
1010
1009
1006
1005
1002
989
978
969
967
967
965
965
960
959
959
962
964
963
961
959
962
966
966
965
964
964
967
967
969
968
968
969
970
973
972
969
966
963
969
976
991
1012
1039
1071
1110
1150
1188
1222
1243
1261
1267
1256
1231
1202
1179
1157
1134
1105
1080
1064
1051
1031
1012
1002
988
976
962
953
945
944
938
934
929
927
929
928
932
930
928
926
928
931
933
933
934
933
933
935
936
937
936
935
937
939
936
939
937
938
940
940
940
938
935
937
939
938
940
937
933
931
936
937
939
940
936
936
937
939
943
940
940
940
943
946
949
948
951
953
956
956
957
961
963
965
967
974
975
979
979
983
988
992
994
993
994
997
1001
1006
1005
1006
1000
999
1003
1004
1003
999
997
994
994
993
993
991
989
988
988
990
987
983
981
983
985
987
986
983
979
976
979
982
981
979
979
976
977
979
976
975
974
971
972
975
975
972
973
973
977
975
974
974
972
968
971
975
977
976
974
974
976
975
975
974
972
969
977
974
977
977
974
972
973
978
976
974
971
973
975
976
978
978
977
975
976
978
977
978
978
975
977
976
978
977
975
976
982
984
986
987
985
991
996
1000
998
996
994
999
1003
1010
1013
1013
1014
1015
1018
1020
1019
1018
1017
1013
1015
1016
1011
1004
994
986
977
972
969
966
964
965
968
967
964
965
964
964
967
968
968
967
967
964
966
968
969
970
970
971
971
975
974
974
974
970
972
972
974
978
988
1010
1041
1075
1110
1149
1188
1221
1251
1273
1282
1274
1251
1224
1203
1185
1160
1126
1094
1071
1060
1049
1031
1010
995
981
974
964
956
949
942
938
937
935
933
928
928
929
932
932
935
932
932
930
934
937
936
937
933
932
933
939
941
942
940
938
938
937
938
938
939
938
939
937
942
942
939
940
938
939
939
938
938
936
937
939
939
940
938
937
941
942
943
940
942
944
948
950
951
954
953
954
959
963
966
967
969
967
973
976
978
981
983
985
990
994
997
1003
1002
999
999
1001
1004
1002
1000
997
997
997
996
995
992
991
992
990
988
988
985
984
983
983
982
981
978
977
977
979
979
975
974
973
975
977
976
972
970
969
972
977
973
972
974
972
972
971
973
973
973
973
974
976
974
973
974
973
974
977
976
972
974
974
977
978
976
975
975
976
977
978
979
976
976
973
979
981
978
977
974
973
975
978
979
979
978
975
978
981
980
980
979
979
981
982
982
980
980
983
986
990
996
994
994
995
997
999
1000
1001
1003
1006
1009
1014
1017
1017
1020
1021
1023
1024
1021
1018
1017
1014
1015
1016
1013
1007
995
984
977
973
974
973
971
968
969
970
970
973
968
969
971
975
974
976
974
973
976
978
979
978
976
977
978
981
981
980
978
976
977
977
976
979
986
998
1023
1052
1084
1119
1158
1195
1229
1254
1269
1275
1266
1243
1216
1200
1181
1161
1137
1108
1087
1072
1059
1044
1022
1008
998
985
976
965
953
946
945
943
942
940
935
933
935
936
936
936
935
935
936
938
937
939
938
938
939
942
940
940
940
938
942
941
943
942
942
942
940
943
943
942
939
936
937
941
940
941
937
936
936
939
939
939
940
938
938
943
945
946
944
944
945
949
952
955
955
956
962
965
967
970
971
974
979
984
987
989
990
993
998
1001
1005
1001
999
999
1002
1007
1007
1003
999
996
998
1000
999
997
993
990
991
991
989
988
985
984
983
984
984
981
982
981
984
982
979
980
977
976
980
983
981
979
978
976
977
978
976
976
974
975
973
977
978
975
974
970
971
975
975
977
977
975
977
977
979
978
975
976
977
979
979
975
978
977
979
979
978
978
977
976
979
982
980
978
978
978
981
982
982
982
978
979
981
984
983
985
984
980
985
988
991
997
999
999
1001
1001
1003
1001
1002
1005
1011
1015
1016
1018
1020
1021
1024
1023
1022
1019
1018
1015
1017
1016
1010
1002
990
978
973
971
971
970
966
966
969
969
971
970
968
966
968
970
970
970
968
969
973
971
974
974
974
973
978
978
977
977
974
970
970
971
976
983
995
1017
1048
1079
1109
1141
1178
1210
1239
1263
1276
1275
1253
1223
1200
1180
1160
1134
1104
1084
1077
1067
1055
1037
1017
999
991
982
968
956
949
944
944
944
937
931
931
929
931
935
933
932
930
932
930
934
933
935
932
934
936
937
937
939
932
935
936
935
935
934
935
935
937
937
936
934
931
932
936
936
937
934
931
930
933
936
936
937
933
935
938
941
941
940
939
940
943
945
949
952
954
955
958
959
963
963
965
967
972
975
978
981
981
984
989
995
996
998
1000
1002
1003
1005
1007
1006
1003
1003
1000
1002
1001
997
995
993
992
991
990
987
986
985
985
986
983
979
976
976
979
981
980
978
977
975
976
980
979
977
973
969
971
973
975
975
972
971
970
975
974
974
971
971
973
977
976
974
973
970
972
973
974
973
973
977
975
979
979
976
976
977
977
980
977
976
975
975
977
977
979
979
978
978
981
981
982
982
979
976
979
982
985
984
983
979
982
986
991
997
998
998
1003
1001
1000
1000
1003
1004
1011
1015
1015
1016
1017
1017
1020
1019
1014
1014
1011
1011
1011
1008
999
988
974
967
966
966
967
965
962
960
963
966
968
968
967
965
967
967
968
966
968
969
969
972
971
972
972
971
971
973
972
970
968
968
972
985
1005
1032
1066
1106
1145
1180
1209
1234
1256
1269
1274
1264
1234
1210
1187
1163
1137
1108
1085
1067
1053
1033
1019
1005
990
976
966
955
948
946
942
935
934
930
930
931
933
929
932
931
931
937
935
936
935
931
937
934
938
935
935
936
938
938
938
938
937
935
938
939
940
937
934
935
935
938
940
937
935
935
937
938
940
937
935
937
939
942
943
944
942
941
949
949
952
951
953
954
956
959
961
965
967
970
974
979
981
984
986
988
993
995
1000
1001
1002
1002
1004
1005
1003
1001
1001
1004
1002
1003
1002
997
995
992
992
992
991
991
987
985
984
988
986
985
982
982
979
983
979
978
979
977
979
980
978
975
973
971
975
974
974
973
970
969
972
975
973
973
971
972
974
976
976
974
970
970
972
975
974
971
970
972
974
974
973
974
974
974
978
978
978
975
975
975
977
979
978
977
975
975
978
979
980
977
978
976
980
984
982
979
976
978
985
989
991
992
992
993
997
999
998
998
1001
1004
1011
1013
1015
1016
1019
1017
1018
1018
1015
1013
1013
1009
1005
1000
987
977
968
963
963
962
960
961
962
962
963
965
964
965
962
962
965
968
966
966
966
965
967
969
970
970
969
969
967
967
967
969
981
1004
1038
1073
1113
1155
1195
1229
1255
1268
1261
1236
1208
1185
1169
1145
1113
1079
1062
1047
1033
1016
1000
986
970
958
949
945
943
936
930
925
928
929
929
929
927
926
929
931
930
932
929
928
929
933
933
934
932
933
933
934
934
934
930
929
931
934
934
935
932
931
932
933
932
933
932
932
933
935
935
934
931
932
937
938
942
940
938
939
946
950
950
949
951
952
953
959
962
967
968
970
974
979
978
982
987
990
994
998
995
999
996
997
997
1000
998
993
993
990
992
991
993
987
984
982
980
982
981
978
976
974
975
977
978
975
974
973
971
969
970
970
970
968
969
970
970
972
969
966
966
968
969
968
966
967
969
970
967
965
963
966
967
969
967
966
962
962
966
967
969
968
967
967
967
967
968
968
965
963
968
969
970
967
965
964
966
967
970
970
967
967
968
972
968
968
966
967
968
971
971
971
970
974
977
982
985
987
987
986
987
991
999
1002
1002
1001
1007
1007
1012
1010
1011
1010
1009
1010
1007
1004
998
989
984
978
969
962
956
955
955
956
958
957
955
955
958
961
961
959
957
960
961
964
962
962
959
961
964
967
965
964
962
960
960
962
962
962
970
992
1023
1057
1094
1130
1167
1200
1231
1252
1258
1250
1224
1198
1178
1160
1137
1105
1072
1049
1039
1025
1005
986
970
960
953
942
937
935
930
930
927
928
924
923
922
923
925
927
929
927
926
926
929
933
932
929
928
928
930
935
932
931
929
927
929
934
931
929
926
926
927
932
930
931
926
924
926
929
931
934
930
930
932
934
935
936
936
935
935
942
944
948
948
949
951
957
960
960
961
965
968
971
974
979
981
983
987
986
991
990
992
991
991
992
989
986
985
982
981
982
984
978
977
975
978
977
974
968
969
968
969
973
969
967
964
966
967
970
968
968
963
963
964
967
967
965
961
960
964
964
965
963
961
962
962
966
966
965
965
960
965
966
966
962
960
962
962
964
967
965
964
962
961
964
962
964
965
962
963
965
965
965
962
962
966
965
964
963
960
962
963
969
968
964
961
958
962
967
969
967
967
970
976
980
981
978
977
979
985
991
994
995
995
994
999
1006
1008
1003
996
992
993
992
991
988
975
966
957
954
950
948
948
946
947
946
947
946
946
946
947
949
945
943
944
946
949
952
951
950
949
948
950
955
954
952
949
948
951
957
970
992
1022
1058
1099
1141
1174
1202
1225
1238
1243
1233
1206
1173
1144
1120
1092
1059
1029
1013
1004
987
972
958
950
944
935
929
927
926
921
919
917
914
914
915
915
913
910
910
912
916
919
918
916
916
916
919
917
918
917
915
918
921
920
921
917
917
916
918
917
918
915
913
914
917
915
915
913
915
918
919
917
917
914
913
915
918
922
921
921
919
922
927
929
929
928
928
933
935
938
939
941
945
949
951
952
957
957
962
967
969
970
972
973
977
981
983
981
977
976
976
976
978
976
976
973
970
969
972
968
967
962
961
962
964
965
963
962
959
961
963
964
963
962
960
962
961
963
961
960
959
961
964
963
959
959
960
961
963
965
960
956
956
960
965
963
962
961
959
959
962
962
963
960
958
961
961
960
960
960
959
960
963
963
962
964
962
963
964
962
962
960
962
963
966
965
967
961
962
962
962
966
965
961
961
964
966
967
968
965
965
965
969
970
976
979
981
984
981
982
982
985
990
996
999
1000
1002
1001
1004
1008
1008
1007
1006
1002
999
1000
1000
995
990
980
971
962
960
961
960
956
955
956
959
959
958
957
957
960
962
960
959
960
961
962
966
964
962
961
962
964
967
968
966
964
963
962
965
971
980
995
1019
1052
1085
1121
1157
1191
1220
1241
1258
1269
1272
1256
1228
1201
1182
1158
1130
1096
1066
1053
1040
1021
1003
990
980
972
965
954
947
940
935
932
929
929
924
925
927
929
930
931
930
929
930
930
934
935
934
933
930
932
938
938
938
935
934
936
937
937
936
934
933
932
936
938
938
936
933
936
936
935
933
933
930
934
936
939
934
933
932
937
939
943
941
938
940
940
944
942
942
941
942
949
952
952
953
956
958
963
964
967
969
970
975
977
982
983
986
988
992
998
1002
999
998
999
999
1005
1005
1003
1002
999
997
998
999
1002
1001
997
992
994
989
989
986
984
986
988
989
985
988
988
984
983
984
984
986
980
978
980
982
976
976
971
969
972
973
975
973
972
967
966
970
974
976
980
980
990
1002
1015
1027
1038
1058
1084
1111
1143
1168
1189
1209
1227
1255
1286
1318
1345
1363
1381
1383
1358
1305
1240
1188
1149
1106
1055
1007
973
951
939
935
933
927
922
912
908
909
908
901
896
892
886
889
893
900
905
906
902
895
886
883
882
879
878
875
876
885
898
903
907
906
902
898
901
903
901
900
899
903
907
913
912
907
900
900
898
903
905
908
911
911
910
909
911
916
913
913
912
911
917
917
919
919
917
920
923
928
930
924
920
919
921
928
931
937
948
960
969
970
975
979
984
989
993
993
995
999
999
1001
1005
1006
1003
1000
999
1000
1002
1003
1004
1008
1007
1005
1006
1014
1018
1020
1020
1020
1024
1026
1022
1023
1024
1022
1023
1023
1027
1028
1026
1027
1027
1029
1029
1027
1027
1027
1030
1029
1026
1021
1012
997
993
996
1003
1013
1019
1025
1033
1041
1043
1044
1046
1046
1045
1038
1031
1028
1028
1031
1033
1032
1028
1029
1028
1025
1027
1028
1026
1020
1018
1019
1019
1021
1018
1016
1013
1011
1013
1012
1014
1011
1013
1011
1012
1008
1007
1007
1004
1006
1005
1008
1006
1008
1006
1005
1009
1009
1009
1011
1010
1011
1012
1011
1012
1013
1011
1009
1005
1004
1002
1000
1001
1003
1002
1007
1015
1024
1032
1032
1032
1031
1030
1026
1026
1026
1024
1022
1018
1019
1016
1013
1012
1014
1014
1013
1010
1009
1008
1009
1011
1011
1010
1008
1008
1009
1008
1007
1007
1005
1006
1008
1007
1006
1003
1000
1002
1005
1003
1000
996
995
996
999
1003
1005
1002
1000
1004
1007
1008
1007
1008
1013
1013
1012
1010
1009
1007
1006
1009
1008
1009
1005
1001
1001
1007
1011
1009
1008
1006
1005
1006
1002
1005
1005
1004
1002
1004
1008
1006
1007
1007
1008
1015
1018
1019
1017
1015
1016
1019
1026
1026
1028
1026
1026
1029
1032
1036
1035
1030
1026
1025
1024
1022
1015
1013
1011
1006
1002
996
997
999
1000
1002
1003
1002
995
989
988
989
990
986
985
985
980
980
982
982
982
978
982
984
985
986
986
982
984
982
984
990
997
1016
1043
1080
1115
1150
1185
1217
1239
1263
1281
1286
1263
1232
1204
1185
1168
1147
1119
1096
1082
1072
1058
1037
1021
1010
1005
998
991
982
980
973
969
964
964
960
957
953
953
955
955
957
955
959
959
960
962
963
959
957
958
958
960
962
960
958
957
954
954
955
955
957
951
953
957
961
960
957
954
959
962
962
962
957
955
957
960
960
959
959
958
962
965
966
966
966
971
973
977
979
980
981
984
989
992
996
994
996
1000
1003
1007
1010
1014
1016
1015
1023
1027
1032
1032
1032
1036
1041
1044
1046
1041
1039
1039
1038
1040
1038
1036
1033
1026
1026
1021
1021
1018
1016
1011
1010
1008
1008
1003
999
997
1000
997
995
990
989
987
988
988
986
985
983
984
984
984
982
979
980
979
980
981
981
981
979
982
981
987
988
988
988
987
990
995
997
994
990
991
994
996
999
999
999
999
1000
1005
1008
1004
1002
1005
1009
1012
1013
1010
1009
1013
1017
1018
1018
1019
1017
1014
1017
1019
1020
1020
1021
1022
1026
1030
1035
1038
1034
1033
1032
1030
1033
1037
1041
1047
1052
1054
1053
1052
1051
1053
1053
1050
1048
1047
1046
1042
1033
1023
1015
1004
995
992
989
989
987
989
989
991
994
998
1001
996
993
992
998
1001
998
997
995
997
1002
1006
1007
1006
1004
1000
999
995
991
986
984
985
992
1010
1034
1065
1096
1128
1165
1201
1227
1251
1267
1278
1284
1270
1244
1216
1188
1162
1131
1097
1069
1048
1033
1018
1003
989
976
960
946
934
930
927
924
919
914
910
905
900
901
899
896
894
895
901
905
902
896
895
898
907
910
908
906
904
908
913
914
913
916
918
919
920
921
920
924
927
930
929
920
916
917
921
920
923
925
923
922
923
926
928
929
926
925
926
926
930
930
927
930
934
938
945
948
946
944
948
954
960
964
968
968
967
972
977
981
980
978
976
980
983
984
982
979
979
982
985
984
982
977
974
975
977
976
975
972
970
965
967
966
968
969
969
969
968
970
970
969
966
966
970
973
973
974
976
975
967
963
959
960
961
968
972
972
968
964
963
968
971
971
967
966
963
968
972
971
967
967
968
976
975
967
958
959
961
965
968
972
971
970
968
969
974
973
967
963
963
969
972
970
970
965
967
972
974
973
973
971
968
968
971
970
967
965
967
971
976
982
986
988
987
986
985
983
986
992
994
997
1001
999
1000
999
997
1000
1000
1004
1004
999
993
984
974
963
950
939
935
939
942
941
941
940
935
935
939
941
941
938
938
945
949
949
947
945
947
951
957
956
952
951
951
951
951
949
944
951
965
989
1018
1045
1077
1106
1139
1177
1207
1233
1250
1258
1253
1235
1210
1182
1157
1130
1105
1083
1070
1061
1040
1016
997
987
982
973
956
943
931
925
921
916
913
910
911
916
920
921
924
922
922
916
912
909
909
912
915
919
920
921
921
916
913
918
923
919
913
909
911
915
919
922
922
920
920
919
920
924
926
927
921
920
922
921
925
929
932
927
922
917
913
915
919
923
926
930
932
935
935
939
945
951
951
949
950
954
956
957
957
954
954
956
964
975
982
982
976
972
970
972
971
971
967
970
971
973
973
972
968
966
964
961
955
946
944
949
950
954
956
953
951
951
953
953
951
946
947
953
954
956
957
957
954
951
953
952
951
947
945
948
947
949
947
946
945
947
948
947
945
945
944
947
948
948
950
949
946
948
948
955
951
952
954
955
959
962
965
963
962
958
958
964
966
961
954
954
955
960
958
959
960
961
964
965
970
974
975
974
971
966
971
979
989
999
1003
1003
1003
1006
1014
1015
1012
1012
1008
1004
999
995
984
973
962
954
953
956
957
958
958
956
950
950
954
958
961
960
957
964
970
974
971
970
967
968
974
978
983
980
979
979
982
980
982
995
1017
1051
1083
1108
1136
1170
1205
1245
1270
1283
1278
1268
1248
1226
1198
1165
1138
1120
1108
1094
1081
1061
1040
1018
998
985
972
958
951
942
935
929
927
924
922
921
930
937
942
941
938
934
929
927
931
934
938
937
936
938
941
941
942
940
941
942
942
945
941
937
935
936
939
935
934
930
929
934
940
943
943
941
938
943
943
946
945
946
947
949
956
960
960
958
960
962
967
972
968
968
967
972
978
983
988
984
982
985
988
992
997
998
998
997
999
1002
1003
1003
1000
998
999
1000
1000
997
993
993
992
995
989
989
985
987
987
989
983
978
976
981
986
987
984
975
969
974
977
977
973
971
972
976
975
975
972
970
968
969
969
970
970
970
967
968
971
973
975
976
976
977
978
976
976
977
975
977
984
989
989
983
978
979
982
982
984
985
987
988
992
990
988
985
983
984
990
991
990
987
986
987
988
992
993
988
984
986
993
995
996
1000
1006
1010
1011
1006
1006
1005
1012
1018
1024
1025
1025
1026
1027
1029
1032
1028
1023
1017
1018
1021
1020
1008
991
979
973
974
973
972
969
968
969
973
975
974
972
968
969
971
971
970
969
969
971
973
976
975
977
972
969
969
967
967
965
968
977
1001
1027
1058
1094
1132
1171
1203
1232
1253
1265
1256
1239
1216
1192
1156
1122
1098
1084
1076
1064
1045
1024
1004
986
972
961
952
944
934
930
927
926
925
922
918
914
918
922
925
927
927
924
927
931
929
927
930
930
933
935
939
938
934
933
936
937
936
936
934
930
933
937
935
933
932
930
931
930
933
936
936
933
934
937
937
936
934
935
936
937
938
941
935
934
938
942
943
946
945
946
949
953
954
955
957
954
959
965
969
969
968
969
972
975
976
976
975
974
975
975
969
963
959
954
953
955
957
958
957
952
952
953
956
958
957
955
958
960
962
960
959
959
958
956
956
957
955
951
951
954
954
954
955
952
953
959
960
960
958
957
960
960
957
956
953
957
960
966
967
964
959
957
960
961
964
963
961
961
964
967
970
969
966
965
965
965
963
965
962
961
965
967
966
965
959
958
961
962
959
959
962
961
966
969
972
971
971
973
975
980
982
981
977
978
984
986
993
995
988
992
999
1005
1004
1000
992
986
990
988
983
977
968
954
947
944
942
939
940
945
948
946
948
949
947
946
945
947
950
947
945
943
944
947
947
948
945
948
950
951
951
947
943
939
941
941
949
964
985
1014
1053
1090
1127
1159
1185
1210
1232
1246
1239
1223
1205
1184
1164
1138
1111
1087
1073
1065
1052
1031
1015
999
984
965
951
939
930
921
912
906
905
909
907
909
903
901
904
908
911
908
901
899
903
908
913
911
910
909
914
916
915
912
914
913
912
914
913
912
913
908
910
915
919
919
915
912
910
913
916
915
911
910
914
919
922
920
919
918
918
923
921
922
925
926
928
931
936
939
939
942
944
948
952
953
959
963
969
969
970
971
972
976
978
980
980
979
976
972
974
976
976
975
975
972
973
968
962
958
955
954
956
959
961
959
956
952
953
953
953
953
950
949
950
950
949
947
945
940
941
941
941
940
942
941
942
938
940
939
938
937
940
942
941
940
938
938
938
939
938
938
937
937
937
939
940
937
935
932
935
938
939
936
934
936
936
936
939
944
942
939
937
933
933
930
929
931
936
941
941
941
940
943
945
948
952
948
942
936
938
949
955
962
962
966
969
973
976
976
978
976
977
974
973
971
968
962
957
948
936
928
926
926
927
927
928
927
927
924
924
924
925
924
925
928
931
932
933
927
924
918
919
920
920
925
926
927
925
919
910
908
914
925
944
968
993
1027
1069
1107
1145
1170
1191
1206
1211
1206
1188
1170
1149
1129
1100
1068
1045
1037
1028
1013
987
968
951
940
930
918
905
898
893
889
891
888
888
887
886
883
876
878
878
879
882
881
882
884
885
886
890
890
888
885
885
887
888
892
892
894
896
894
899
903
897
889
883
887
895
895
888
886
887
890
894
895
899
898
899
898
892
890
884
884
887
890
897
902
902
902
900
904
911
913
916
917
917
921
923
929
930
931
932
931
934
939
946
953
954
952
954
957
961
962
961
960
961
960
958
960
955
953
947
939
938
945
948
951
953
952
945
935
931
933
939
943
950
950
946
942
937
931
929
934
935
932
938
940
939
941
939
938
938
939
937
937
935
934
938
939
943
943
938
931
930
935
940
938
936
934
937
943
946
943
937
929
930
935
943
942
936
935
939
941
944
942
939
935
939
941
944
942
939
938
936
941
945
942
937
938
941
944
944
941
944
948
953
959
963
965
961
956
956
966
975
982
978
976
976
984
988
988
984
976
974
973
973
969
964
957
948
942
935
934
934
928
931
931
930
930
931
930
932
936
936
938
934
936
938
940
936
934
931
937
942
944
944
940
933
929
930
936
951
970
990
1013
1043
1075
1110
1143
1175
1204
1229
1238
1231
1210
1188
1164
1144
1121
1088
1061
1044
1033
1023
1007
986
971
957
943
936
926
918
911
910
906
906
904
905
904
905
911
910
911
909
908
907
906
908
913
911
909
906
906
909
913
914
910
905
905
908
907
913
913
910
909
907
913
913
914
911
906
907
911
913
910
911
909
911
913
910
907
909
911
914
913
915
918
916
919
925
931
931
931
930
927
932
941
944
946
949
949
955
956
959
957
959
960
968
970
972
970
968
968
970
974
977
977
977
974
975
973
969
966
962
959
961
963
963
964
963
962
963
964
965
961
956
954
952
952
952
955
957
957
958
960
958
953
949
949
951
949
949
949
951
952
954
959
954
950
944
942
947
950
955
955
950
948
948
952
955
958
952
950
950
948
950
956
953
951
953
955
958
955
956
954
956
958
960
957
949
947
951
956
962
958
954
955
956
960
963
961
955
952
955
962
968
973
970
969
969
973
977
978
980
984
984
985
988
992
996
999
1002
1003
999
995
988
985
991
995
994
986
974
963
953
947
948
948
946
946
948
952
953
953
947
944
942
942
947
952
952
949
949
951
951
949
949
952
956
958
957
952
952
950
952
952
952
961
977
1005
1037
1068
1098
1134
1168
1199
1226
1242
1259
1259
1246
1220
1196
1171
1150
1122
1091
1063
1050
1040
1024
1008
992
981
970
960
946
936
930
929
934
936
934
929
922
919
920
917
916
922
926
927
929
931
929
928
926
924
929
932
929
929
924
925
926
927
928
923
923
925
932
932
928
926
923
925
930
936
935
932
923
922
923
924
928
930
928
928
927
927
929
928
926
924
929
931
934
932
935
935
939
940
940
941
944
945
950
952
954
957
961
962
967
972
978
979
981
978
983
984
985
984
981
981
982
986
989
987
984
984
983
982
983
982
978
975
973
970
971
969
970
972
971
970
968
963
963
961
964
966
965
962
961
963
963
965
960
958
959
957
958
958
956
954
955
959
958
961
957
953
948
946
953
955
959
956
956
950
950
951
953
951
950
950
955
960
960
956
953
949
951
953
955
956
954
954
956
960
955
954
955
958
961
962
962
963
955
950
947
950
952
956
958
956
960
961
962
959
960
958
962
970
976
979
975
973
970
970
971
978
983
987
993
998
996
990
987
989
994
999
998
996
993
992
992
987
978
966
953
947
949
951
952
949
951
946
945
944
944
946
946
947
949
952
954
950
947
945
946
950
953
954
953
955
957
958
955
954
952
949
949
957
967
982
1006
1030
1061
1095
1128
1160
1186
1212
1235
1255
1263
1259
1239
1215
1188
1166
1138
1102
1074
1057
1046
1032
1011
989
974
961
952
945
940
932
926
919
913
913
915
912
914
911
909
908
910
915
917
917
919
921
925
921
918
913
915
915
916
916
914
916
919
922
923
922
921
923
924
923
919
916
914
915
916
918
922
921
920
920
920
919
916
916
920
921
922
922
922
923
925
924
927
927
926
927
932
938
941
943
943
942
941
945
949
957
958
962
960
961
969
974
978
984
986
985
981
978
978
981
981
979
980
979
979
976
972
970
970
975
976
974
972
970
969
965
962
962
962
963
969
969
965
960
957
957
962
965
964
960
955
955
959
962
961
961
958
957
956
955
952
952
947
947
950
955
957
956
955
950
948
949
955
958
956
952
952
953
956
959
956
955
957
957
958
956
954
952
956
956
956
953
950
949
957
960
961
960
957
955
960
963
963
962
958
956
957
963
967
966
966
968
973
977
982
981
983
976
974
977
983
993
995
992
995
995
999
999
996
990
990
992
993
986
976
968
963
959
953
951
946
941
944
944
946
951
953
948
942
943
944
949
946
949
952
956
955
953
949
947
949
951
954
955
954
952
948
949
952
961
983
1010
1045
1080
1115
1150
1187
1215
1237
1256
1270
1266
1247
1219
1194
1171
1146
1110
1079
1059
1046
1030
1010
990
974
959
948
938
931
927
924
920
920
918
914
912
908
906
910
915
915
915
916
918
920
923
921
918
916
916
919
920
922
923
923
923
924
927
926
926
920
912
911
917
920
924
923
923
925
927
926
921
921
922
927
930
929
928
928
927
931
934
934
936
939
942
945
947
949
951
951
948
949
955
962
965
965
965
973
977
983
987
989
990
994
1000
1005
1005
1005
1000
998
996
994
993
992
990
990
995
995
994
986
978
976
981
980
979
979
977
979
980
981
983
979
972
970
975
978
975
972
970
972
972
969
967
966
965
973
977
979
976
970
966
963
966
968
969
969
969
972
971
970
969
970
971
972
975
975
973
971
970
970
972
970
970
972
974
979
977
972
971
971
975
977
975
976
974
972
973
976
977
974
969
969
971
978
988
993
998
998
993
989
989
992
998
1000
1002
1008
1011
1016
1019
1017
1013
1007
1004
1004
1005
1000
993
986
975
970
966
963
962
963
967
967
965
961
960
960
962
966
964
964
968
971
978
978
971
958
957
966
975
975
973
971
971
974
986
1005
1041
1081
1123
1167
1209
1237
1262
1281
1291
1283
1253
1221
1191
1159
1122
1092
1075
1061
1042
1019
999
988
979
967
956
946
940
931
925
925
928
928
932
936
935
929
923
922
927
934
937
936
933
933
934
934
934
934
934
932
933
934
933
932
931
929
927
931
933
936
936
933
927
927
930
932
932
928
930
934
935
935
935
934
931
932
929
934
939
945
949
951
954
953
952
954
953
957
963
971
972
972
973
976
982
985
984
985
984
991
992
991
988
985
983
984
988
988
990
985
976
974
976
976
977
976
976
977
977
973
967
962
963
966
970
972
969
965
960
960
960
960
961
962
962
965
965
965
961
959
957
961
960
961
957
955
957
957
959
961
956
952
952
957
961
963
962
961
961
963
962
964
961
961
957
960
961
961
964
960
960
959
958
956
958
959
961
962
964
967
965
965
963
962
961
960
961
964
969
973
973
976
977
978
973
973
977
983
991
995
995
997
998
1003
1006
1006
996
992
991
994
996
992
984
979
967
960
949
948
946
951
954
955
956
960
957
955
954
949
950
954
957
959
957
955
961
960
955
953
958
964
965
961
955
952
960
965
981
1007
1040
1082
1127
1173
1210
1238
1256
1267
1264
1243
1218
1193
1171
1145
1113
1084
1065
1055
1044
1025
1002
983
969
957
943
936
933
929
929
926
924
921
919
915
912
915
917
920
922
922
921
922
922
923
924
923
921
922
923
928
932
930
925
922
919
922
927
926
925
923
922
922
927
932
931
923
920
923
927
925
927
927
928
932
933
933
932
931
932
936
942
944
945
945
946
951
956
957
961
962
963
968
971
973
973
976
980
986
990
990
991
985
985
992
997
997
993
987
984
990
989
986
982
980
980
980
980
975
973
974
978
981
978
974
972
970
970
972
974
976
968
964
965
969
973
971
971
969
970
970
972
969
966
963
961
962
963
965
963
963
964
969
972
971
970
968
972
977
991
1008
1028
1047
1071
1102
1140
1173
1202
1228
1253
1287
1319
1346
1370
1388
1397
1384
1342
1279
1215
1156
1097
1039
990
956
931
915
907
904
905
906
910
911
913
915
921
920
921
917
915
918
921
920
914
911
909
908
908
909
908
908
912
915
921
918
917
915
917
920
923
920
915
911
905
906
904
907
910
907
909
912
913
909
905
902
900
902
904
907
909
909
906
908
910
912
912
909
911
915
920
921
922
923
925
928
931
932
934
934
935
940
946
951
953
956
960
963
969
971
973
973
973
979
982
984
984
985
984
986
985
986
986
987
985
982
978
977
980
979
980
978
982
982
979
977
975
980
985
984
985
978
972
974
983
989
987
984
981
974
971
974
977
980
975
976
979
979
978
977
975
979
979
980
980
979
976
978
981
981
978
977
975
978
979
978
978
979
979
982
982
979
975
973
973
980
984
985
984
982
979
979
977
978
978
977
974
980
981
984
984
982
982
986
988
988
986
983
980
982
986
989
987
985
990
991
993
994
992
987
987
989
992
997
994
990
989
992
994
993
991
987
987
992
995
993
991
988
988
990
993
993
993
993
990
991
992
996
992
993
993
996
996
994
992
988
986
986
989
992
997
996
995
991
989
991
989
990
990
991
994
994
991
991
993
995
998
997
995
993
993
996
998
1000
1002
1000
997
993
991
989
992
991
989
993
1000
1005
1007
1013
1012
1013
1014
1011
1016
1019
1023
1027
1032
1032
1034
1030
1031
1034
1036
1036
1033
1029
1024
1019
1018
1014
1009
999
991
986
985
986
980
979
979
980
983
984
986
984
979
983
983
983
988
989
989
987
988
989
989
990
994
999
998
993
988
987
991
1002
1018
1038
1067
1101
1142
1187
1222
1249
1269
1285
1290
1282
1259
1234
1208
1188
1169
1149
1123
1099
1082
1071
1052
1035
1020
1006
991
976
962
953
951
952
950
945
938
940
945
944
943
940
938
941
942
942
941
941
941
945
946
947
944
946
945
948
951
948
943
941
942
945
949
954
952
946
939
940
943
947
949
947
946
945
947
950
950
949
950
951
951
951
948
947
949
956
964
971
974
967
961
964
970
975
978
980
984
988
992
994
994
997
996
1004
1010
1014
1017
1017
1021
1026
1033
1034
1030
1028
1026
1028
1036
1039
1041
1037
1032
1030
1030
1032
1032
1030
1029
1022
1020
1020
1016
1012
1006
1008
1007
1007
1001
996
991
989
992
992
987
985
985
989
990
990
986
984
983
985
989
985
981
977
975
975
980
981
979
977
974
973
978
980
980
980
975
977
978
979
977
976
974
976
977
978
978
979
979
980
981
982
981
979
981
981
986
984
979
974
975
979
980
980
984
981
979
981
982
981
981
982
978
981
985
989
991
992
995
1000
1004
1003
1000
999
1001
1006
1013
1018
1019
1020
1018
1018
1017
1019
1020
1018
1015
1018
1022
1023
1021
1015
1007
995
984
972
966
965
963
966
970
968
966
964
961
965
970
970
971
969
968
969
974
976
974
974
972
972
975
980
980
976
971
970
975
977
976
975
977
981
995
1018
1046
1080
1114
1149
1186
1217
1241
1259
1270
1279
1268
1245
1223
1201
1181
1160
1131
1103
1083
1068
1053
1036
1023
1009
993
983
971
962
956
952
953
949
941
937
934
935
936
934
934
936
939
938
940
939
939
941
946
948
946
943
937
933
938
943
945
943
941
937
940
946
946
941
938
939
943
948
950
948
945
943
943
941
940
939
939
937
940
941
946
944
944
945
950
951
952
949
945
946
947
953
954
956
958
958
959
963
965
966
968
976
981
984
983
981
983
987
994
996
994
997
1000
1002
1001
1001
1000
1001
1001
1004
1008
1010
1007
1002
996
995
992
992
995
995
994
996
996
995
992
987
983
986
987
991
988
988
986
987
985
982
980
975
977
977
982
984
985
981
978
981
984
982
979
976
974
975
978
983
982
978
973
977
978
979
983
978
979
982
983
983
978
979
978
979
983
984
981
980
981
984
987
985
984
979
978
976
978
974
977
977
977
978
978
979
980
978
980
983
985
984
982
980
983
985
988
994
998
1000
1002
1001
1005
1004
1006
1006
1012
1017
1023
1026
1027
1028
1028
1033
1030
1027
1022
1020
1019
1016
1010
996
980
969
961
966
968
970
970
970
968
969
971
972
972
970
967
970
975
976
975
971
970
974
975
977
974
975
974
976
978
979
974
970
964
969
980
1001
1028
1061
1094
1133
1174
1212
1242
1262
1279
1281
1272
1249
1221
1197
1171
1143
1117
1098
1083
1064
1042
1028
1015
1001
982
964
953
951
952
951
946
937
931
932
933
934
934
931
931
933
933
936
937
937
936
937
935
937
936
937
938
939
941
943
947
944
939
933
933
934
939
940
939
941
943
941
935
934
934
935
940
941
941
941
942
943
941
942
943
945
946
944
944
942
943
946
949
956
960
962
962
962
962
965
967
973
977
977
976
984
990
996
999
999
998
998
1001
1005
1008
1010
1008
1010
1011
1014
1013
1010
1007
1003
1003
1004
1002
1001
995
997
996
992
990
986
986
986
989
988
985
988
987
987
987
987
988
989
984
985
986
986
985
986
979
982
984
989
989
987
981
975
972
974
979
980
976
979
977
983
982
980
976
976
978
981
980
980
981
980
980
978
979
976
976
978
981
978
976
976
976
979
982
983
982
979
976
973
971
973
972
971
966
966
968
972
977
972
969
969
972
979
986
989
989
989
994
993
990
985
984
993
1001
1007
1005
1003
1004
1015
1017
1016
1012
1009
1011
1013
1012
1008
996
986
978
971
967
965
960
955
954
958
960
960
963
964
962
956
964
967
967
968
962
961
960
963
965
970
971
971
972
972
968
967
965
968
970
975
992
1021
1060
1102
1141
1178
1213
1239
1262
1286
1296
1283
1260
1237
1211
1187
1156
1122
1097
1079
1064
1051
1033
1014
995
977
966
956
950
943
938
933
928
925
928
929
929
928
928
934
935
935
935
934
933
938
940
943
942
936
931
928
935
941
940
937
934
936
943
942
936
931
930
934
937
938
935
936
933
934
934
935
936
935
936
932
933
938
942
948
950
944
943
943
946
950
952
956
963
963
960
962
964
972
978
976
976
981
984
990
997
1002
1001
1001
1002
1000
1003
1003
1001
1001
998
1000
999
1000
999
1001
999
995
990
985
984
985
985
983
984
985
985
983
980
982
982
981
979
979
978
982
982
980
978
975
973
974
975
973
974
974
975
974
978
979
979
978
976
976
977
978
979
976
975
972
977
979
975
977
976
978
978
979
977
976
974
975
976
977
978
975
975
976
979
980
977
980
975
975
976
979
980
979
979
980
984
985
986
986
987
987
988
993
997
999
1002
1004
1004
1000
1002
1009
1016
1021
1024
1026
1028
1029
1032
1034
1037
1037
1035
1030
1027
1022
1016
1009
1000
992
987
986
986
986
985
982
978
979
984
986
986
984
978
978
983
985
985
984
981
985
985
989
990
993
991
988
985
985
987
984
983
986
1001
1026
1058
1089
1116
1149
1185
1221
1246
1261
1270
1269
1256
1234
1208
1188
1170
1145
1117
1094
1079
1063
1045
1033
1019
1004
989
976
963
962
959
954
948
946
940
940
944
946
946
945
942
946
951
951
951
952
952
951
947
950
949
949
946
949
948
952
951
950
950
951
948
950
949
947
947
952
952
952
948
946
945
947
950
947
943
944
947
949
950
951
952
957
956
958
956
958
965
966
962
958
954
961
969
974
973
979
981
983
984
985
989
992
1000
1002
1003
1004
1005
1012
1011
1008
1006
1006
1009
1012
1014
1014
1014
1009
1002
1002
1003
1002
1002
998
998
997
998
998
996
993
994
995
997
995
994
992
991
991
990
992
992
990
990
991
995
995
994
991
988
988
986
983
982
986
985
986
986
987
985
986
989
991
988
986
984
981
986
987
989
990
989
989
987
987
988
988
987
987
984
988
994
997
997
989
982
976
978
987
993
993
994
989
990
990
989
990
984
986
982
988
990
992
996
1001
1008
1017
1017
1015
1011
1009
1012
1011
1012
1012
1016
1023
1026
1029
1032
1029
1025
1024
1025
1026
1024
1019
1009
1002
994
989
978
973
972
974
973
972
973
969
970
975
977
980
979
980
978
978
980
981
980
982
981
980
983
982
983
985
985
984
979
979
977
977
987
1008
1037
1070
1106
1140
1177
1213
1242
1267
1287
1297
1282
1254
1228
1209
1187
1160
1127
1106
1086
1067
1044
1023
1010
1003
998
988
975
960
952
949
947
946
944
946
939
941
944
948
947
944
940
943
946
947
947
947
946
949
950
952
951
949
946
949
951
951
950
949
949
952
954
955
954
952
947
944
943
947
953
954
952
952
953
956
957
953
949
948
950
951
954
956
956
958
961
965
967
966
968
969
970
977
984
989
987
985
986
992
997
1002
1003
1011
1015
1016
1016
1008
1004
1008
1014
1018
1020
1019
1017
1016
1015
1017
1013
1006
1002
1001
1003
1002
1001
997
991
990
994
996
995
995
992
990
991
987
983
982
983
985
989
985
980
978
979
984
988
984
982
977
973
969
975
976
973
974
973
976
978
978
976
973
971
975
976
977
979
978
974
973
972
972
973
972
972
973
974
974
974
970
968
968
970
971
971
970
970
973
977
976
973
972
974
977
980
980
980
978
978
982
988
994
997
995
995
998
1001
1005
1005
1000
998
1007
1013
1020
1022
1020
1017
1014
1011
1006
1008
1006
998
993
985
976
969
967
964
962
959
958
958
961
964
966
967
963
961
962
965
967
966
967
965
967
968
971
974
976
972
967
961
957
963
974
990
1017
1048
1088
1130
1172
1211
1239
1264
1282
1282
1262
1237
1213
1186
1157
1121
1093
1075
1063
1039
1020
1000
985
970
958
946
938
937
933
931
929
926
928
925
924
923
923
923
926
929
931
931
931
929
929
930
931
928
930
933
934
937
935
936
933
929
928
928
929
932
933
932
931
934
935
933
929
927
930
934
936
935
934
935
938
940
941
942
941
943
947
950
953
953
959
960
962
965
971
974
977
976
979
983
989
989
988
987
991
996
997
996
993
990
990
993
993
993
990
986
984
984
986
985
979
974
972
973
977
977
973
969
967
967
971
969
969
965
965
969
970
970
965
962
960
961
963
965
965
964
962
962
962
961
964
961
961
963
963
964
964
961
963
967
968
968
964
961
963
967
969
967
964
964
968
971
971
967
966
962
965
970
970
969
964
963
964
964
965
966
966
965
971
971
971
968
969
965
968
972
973
976
977
980
984
985
985
981
983
988
997
1003
1003
1004
1004
1005
1011
1015
1015
1010
1005
999
998
999
995
987
976
967
960
957
959
956
954
952
952
953
953
953
954
957
961
959
958
956
957
958
955
959
960
959
959
963
967
970
960
948
943
953
974
1001
1035
1070
1108
1145
1185
1220
1245
1258
1253
1230
1206
1189
1171
1148
1115
1083
1067
1056
1048
1031
1011
991
978
968
961
952
939
928
927
926
925
925
923
921
922
924
927
925
919
918
924
930
932
930
928
928
928
927
928
932
933
933
930
929
928
929
928
927
928
928
928
929
927
923
923
925
928
929
931
931
929
928
930
927
925
927
936
939
935
934
932
935
945
950
949
948
949
954
958
965
967
968
970
971
973
979
984
988
988
986
985
986
991
995
993
985
978
980
985
987
984
981
980
980
977
975
968
969
970
971
973
971
969
970
972
971
971
969
967
968
968
970
969
968
968
966
965
965
965
968
967
965
963
964
966
964
963
964
965
966
965
965
966
963
961
967
968
967
963
963
964
964
966
963
965
966
966
964
968
970
965
962
965
965
965
969
969
967
965
966
964
964
966
968
968
972
970
969
967
971
976
980
984
987
991
989
989
984
986
992
1000
1003
1007
1008
1008
1010
1008
1007
1006
1008
1007
1007
1003
998
995
987
978
964
957
953
956
959
960
962
963
959
958
957
958
957
953
956
961
965
962
959
958
960
959
965
969
968
965
965
967
969
971
966
960
960
974
1002
1038
1075
1108
1143
1184
1224
1253
1270
1271
1260
1238
1221
1203
1181
1158
1125
1094
1078
1065
1049
1022
1002
988
978
968
957
945
937
937
937
937
929
923
921
922
921
921
927
926
922
923
924
929
933
931
930
930
935
933
932
928
928
932
932
931
931
930
929
930
931
933
934
932
929
931
934
934
936
933
934
935
937
940
937
937
935
937
939
943
944
942
945
949
953
954
955
956
962
967
970
969
970
971
974
977
980
984
987
992
991
993
993
995
999
999
997
1002
1004
1005
1002
996
995
997
1001
1003
998
987
982
982
989
987
988
982
979
978
978
981
979
977
974
977
983
984
983
977
970
968
968
973
975
975
973
973
973
974
970
969
968
971
976
975
971
968
967
972
976
976
972
967
965
968
972
974
972
967
967
971
976
975
970
969
970
973
975
974
973
972
971
973
975
977
973
973
968
973
973
973
975
974
975
976
975
978
980
982
983
988
992
995
991
989
988
991
997
1003
1006
1007
1006
1009
1012
1017
1017
1011
1005
1000
999
1002
1003
999
989
982
972
966
963
964
961
960
961
960
961
961
962
960
958
959
958
957
961
962
964
962
961
959
964
965
969
972
972
967
962
962
964
962
965
971
982
1004
1033
1066
1099
1137
1175
1214
1241
1260
1266
1252
1229
1203
1182
1164
1139
1107
1074
1057
1051
1046
1037
1020
999
981
968
958
949
943
940
938
937
936
933
931
929
931
930
931
930
930
929
931
931
934
932
931
929
931
936
937
936
935
929
928
934
939
939
936
932
929
931
932
931
930
931
935
937
938
935
936
935
934
935
936
935
936
934
935
935
938
940
938
939
941
944
946
944
946
947
949
950
951
954
956
958
963
969
972
973
975
973
977
984
987
992
992
993
995
999
1001
1000
1000
997
1000
1001
1004
1003
997
991
992
998
1001
999
995
989
988
985
986
988
990
993
993
998
999
997
990
980
979
983
990
992
987
987
986
991
993
987
985
981
983
988
989
988
986
983
986
988
992
987
981
981
984
987
986
988
987
986
984
987
989
990
987
982
983
985
983
987
987
990
986
984
986
982
982
982
988
989
987
982
979
982
988
992
991
989
985
987
990
995
1001
1001
994
986
988
995
1007
1013
1014
1010
1010
1014
1019
1022
1021
1020
1024
1027
1031
1035
1031
1029
1029
1027
1028
1027
1021
1014
1007
1000
995
987
978
972
970
967
971
973
974
973
978
980
982
973
969
967
968
967
972
973
973
976
978
980
979
979
978
979
982
982
981
978
975
978
993
1014
1043
1075
1108
1143
1183
1221
1250
1275
1289
1283
1259
1231
1207
1187
1167
1134
1105
1085
1076
1058
1039
1018
1005
995
986
977
965
952
944
944
944
945
944
937
939
940
937
934
935
936
938
941
939
936
935
937
938
944
946
944
942
938
939
939
940
938
939
938
937
942
944
942
940
936
936
937
941
940
940
936
937
942
945
946
943
938
939
941
945
947
948
948
951
953
949
946
949
949
952
960
960
961
960
964
969
972
976
977
978
982
984
989
991
992
992
991
992
998
1004
1008
1006
1003
1005
1009
1012
1010
1006
1004
1007
1011
1010
1005
996
987
989
990
993
990
990
986
985
988
989
987
982
982
980
980
979
976
976
975
977
980
982
980
979
975
979
981
984
983
978
977
974
977
976
975
975
974
975
977
977
977
974
976
977
978
974
972
969
969
969
975
979
979
976
971
968
970
975
976
977
974
974
978
979
981
974
966
966
969
976
980
981
978
976
972
971
969
969
972
974
977
978
979
975
974
979
985
990
995
998
996
995
995
994
997
1000
1002
1006
1010
1013
1012
1015
1013
1013
1011
1014
1013
1010
1002
996
990
985
978
967
961
958
961
961
962
957
957
960
961
960
959
956
958
961
963
962
958
958
961
967
970
971
968
967
963
964
965
965
963
958
961
968
986
1010
1042
1077
1117
1159
1193
1217
1241
1264
1277
1283
1267
1240
1208
1179
1148
1116
1091
1074
1061
1043
1020
1002
995
988
974
961
945
936
930
930
929
925
919
918
920
919
920
921
922
922
922
923
927
926
921
922
924
927
929
928
926
927
927
928
927
925
926
925
930
927
922
921
921
923
929
930
930
926
923
925
926
925
923
921
922
923
925
930
932
931
929
933
934
936
937
938
939
940
942
947
948
948
949
952
957
957
958
963
968
975
977
975
974
973
979
988
992
993
989
986
988
993
997
996
993
992
989
988
990
987
983
978
976
977
977
978
973
970
967
967
967
971
970
969
968
970
969
965
963
961
959
959
963
964
962
960
959
959
961
964
966
962
960
959
960
962
960
956
953
952
956
956
957
957
956
952
953
955
956
956
955
955
957
961
959
956
958
958
960
962
958
953
950
952
954
956
955
952
953
954
957
958
956
956
957
958
956
959
958
955
951
951
956
963
966
967
965
966
968
971
972
973
972
974
981
987
990
986
988
991
995
998
1000
999
998
997
997
993
994
992
984
977
967
958
950
946
946
946
947
947
947
942
941
942
946
950
951
950
952
950
945
948
950
950
948
947
950
954
953
952
953
954
955
957
955
953
953
969
992
1026
1060
1090
1122
1165
1202
1233
1253
1263
1256
1233
1211
1190
1167
1148
1114
1079
1054
1038
1031
1016
997
977
971
963
953
941
929
922
925
927
924
922
920
920
920
916
918
917
917
922
927
928
926
924
924
926
927
928
928
926
926
928
935
935
930
925
917
918
927
934
939
933
925
927
928
928
927
927
928
933
933
933
936
933
934
933
935
937
936
939
939
942
948
949
948
950
951
956
959
957
959
960
966
970
975
974
973
976
983
987
992
996
996
990
988
991
993
995
997
996
992
990
986
986
982
981
976
978
982
984
982
985
977
975
972
977
976
975
974
974
978
976
976
976
971
971
972
973
974
973
971
970
971
972
967
968
969
968
970
971
969
971
970
973
972
967
967
970
970
971
972
973
972
971
968
969
971
972
971
969
967
969
974
975
974
969
966
965
970
975
975
972
968
968
969
971
973
971
969
972
972
976
977
981
983
988
994
995
992
991
993
1000
1008
1011
1010
1010
1012
1020
1026
1022
1011
998
998
1004
1009
1009
1000
991
980
970
964
965
966
965
958
956
959
966
965
962
956
953
957
960
961
960
959
960
961
957
956
958
959
965
964
964
965
961
960
957
964
974
985
999
1024
1062
1103
1147
1190
1224
1248
1266
1280
1275
1254
1231
1208
1186
1166
1135
1101
1079
1060
1045
1029
1012
999
984
970
956
952
950
948
939
934
932
932
934
934
934
932
932
936
935
933
936
933
935
937
940
940
939
937
938
939
939
937
936
936
933
936
936
936
935
931
931
932
935
936
933
934
935
938
936
937
936
935
932
936
936
935
937
936
940
947
951
953
956
955
956
957
962
966
968
966
972
978
986
988
986
979
984
990
999
1002
1003
1000
998
997
1003
1002
1001
999
999
1000
1002
1000
996
994
989
983
982
980
987
985
986
986
984
980
977
976
979
983
982
980
980
978
981
979
977
980
978
973
972
976
978
975
973
967
969
970
973
974
973
972
974
974
972
971
971
972
972
971
972
977
975
975
978
977
976
974
972
972
972
977
978
979
975
973
978
979
980
977
974
975
978
983
987
987
983
978
980
983
992
997
998
995
996
999
