962
962
962
962
962
962
962
962
966
967
965
961
963
964
968
969
969
970
972
976
979
981
983
980
983
990
994
993
996
998
1001
1009
1014
1012
1014
1016
1021
1025
1030
1033
1038
1040
1045
1050
1061
1069
1075
1078
1085
1093
1104
1110
1116
1116
1119
1128
1135
1141
1139
1139
1137
1138
1136
1134
1130
1121
1120
1117
1116
1108
1101
1095
1085
1081
1075
1066
1057
1048
1045
1041
1039
1032
1025
1016
1015
1013
1016
1010
1004
999
997
996
993
986
986
985
983
984
981
974
967
965
966
967
971
970
967
958
954
954
962
964
963
958
954
956
957
957
958
956
955
957
957
958
959
956
956
957
961
962
961
958
960
961
968
969
968
968
969
974
978
978
975
972
974
977
981
982
974
967
968
975
977
977
972
973
972
975
981
978
975
969
965
968
973
974
971
964
966
966
972
971
969
968
967
971
976
971
965
958
956
965
967
965
958
955
955
960
962
957
956
954
956
954
961
957
955
959
960
964
963
963
959
953
950
954
955
959
953
951
953
951
954
955
956
953
954
956
955
955
952
952
953
956
958
956
954
950
952
955
952
950
950
950
949
952
953
953
951
946
946
948
951
947
948
949
949
953
956
957
957
954
951
949
951
950
949
945
944
948
954
955
955
954
952
953
955
951
945
944
945
954
959
957
954
947
950
952
955
958
957
956
952
956
957
955
946
944
945
952
955
955
955
956
954
961
966
964
960
959
963
962
968
971
975
977
987
1004
1023
1031
1026
1018
1010
1006
1004
1001
997
992
987
988
987
979
977
972
966
963
961
952
947
947
948
953
957
960
960
957
958
957
958
956
950
939
931
932
960
1017
1104
1203
1291
1361
1404
1426
1420
1387
1318
1212
1084
956
871
879
914
934
935
932
933
937
941
946
945
941
937
934
936
941
943
941
939
938
938
937
939
940
940
941
942
942
946
946
941
938
933
942
947
948
946
947
948
947
953
953
954
954
952
955
961
966
966
960
964
969
973
975
973
974
979
981
980
986
992
1001
1009
1010
1007
1005
1005
1010
1020
1026
1031
1027
1027
1032
1044
1053
1063
1071
1074
1078
1084
1095
1108
1117
1123
1127
1129
1135
1144
1152
1154
1149
1147
1145
1153
1152
1144
1131
1129
1134
1137
1132
1128
1122
1114
1107
1097
1083
1076
1073
1067
1057
1054
1047
1041
1036
1029
1030
1030
1024
1016
1012
1005
1009
1010
1009
1003
998
996
994
997
990
985
982
982
985
982
982
979
975
972
974
976
976
975
974
973
974
978
979
979
983
984
981
974
967
969
973
975
980
982
977
972
971
972
978
987
992
986
986
989
992
995
995
993
992
994
996
997
998
996
993
990
992
993
991
990
990
991
993
999
998
990
983
980
982
985
983
982
982
987
989
988
985
984
981
977
979
982
979
975
975
974
973
975
970
970
974
973
975
981
981
975
970
966
967
976
977
973
969
960
963
971
973
972
966
957
962
971
970
963
957
957
961
965
966
964
962
962
964
965
967
966
962
960
964
967
965
964
960
955
964
965
964
963
963
961
962
965
966
960
962
961
967
970
971
969
968
964
957
959
959
959
958
956
962
965
966
966
968
969
970
972
970
965
962
962
965
969
967
961
961
962
965
968
968
967
966
965
967
967
972
969
966
968
967
977
982
987
989
994
1002
1007
1019
1029
1036
1034
1030
1023
1015
1005
1001
1002
1002
1006
1004
997
988
979
976
978
973
967
962
962
968
972
970
967
960
960
964
972
971
964
950
941
934
937
955
998
1080
1182
1282
1354
1397
1423
1430
1418
1385
1312
1184
1056
928
876
917
953
958
952
946
951
956
965
960
951
940
939
942
945
945
943
941
940
942
945
943
943
941
944
950
952
953
951
946
946
949
957
959
956
951
950
956
961
964
962
963
964
966
971
973
972
972
973
969
973
976
975
980
984
992
994
994
995
997
1001
1004
1008
1015
1019
1022
1027
1034
1043
1048
1049
1050
1057
1068
1079
1086
1094
1099
1103
1109
1120
1133
1139
1138
1139
1144
1152
1151
1147
1147
1145
1146
1144
1139
1127
1123
1112
1112
1113
1106
1092
1077
1073
1070
1067
1059
1049
1035
1031
1027
1026
1021
1016
1015
1010
1013
1012
1006
999
991
982
984
984
983
980
973
973
970
971
973
974
969
967
965
966
969
968
964
962
961
960
967
959
956
953
954
956
957
957
955
959
958
955
955
952
958
960
958
959
958
957
961
962
964
970
970
969
966
965
964
968
965
967
965
968
972
970
967
964
966
966
966
969
964
963
966
966
968
968
970
965
963
960
960
964
966
967
964
963
963
964
961
960
961
959
963
970
969
966
960
960
967
972
964
957
953
956
962
965
965
962
958
953
958
959
961
958
956
956
964
969
965
958
951
952
958
961
962
961
957
956
959
960
962
960
963
962
962
961
961
959
958
955
960
964
964
963
960
960
963
962
956
951
951
956
959
959
962
961
963
966
967
967
962
960
964
966
967
958
954
953
956
960
960
961
958
958
959
965
966
965
968
958
958
958
964
966
966
965
961
959
967
968
972
971
974
983
991
996
997
996
1003
1009
1026
1031
1031
1029
1022
1018
1010
1003
1001
999
992
991
990
987
982
974
971
969
969
963
967
969
974
975
972
965
963
959
956
955
952
946
937
938
967
1028
1118
1225
1318
1378
1414
1430
1426
1397
1331
1214
1086
958
874
901
941
953
947
943
951
958
957
954
946
942
942
941
946
946
948
947
948
945
941
937
939
943
947
946
945
944
943
946
949
947
950
952
953
957
961
958
952
953
954
955
963
965
972
965
964
966
971
973
976
974
974
977
980
987
991
994
993
998
1000
1003
1005
1012
1016
1024
1028
1030
1034
1036
1043
1049
1058
1064
1073
1075
1081
1090
1099
1104
1108
1108
1115
1124
1132
1136
1136
1140
1140
1141
1143
1141
1136
1129
1122
1119
1115
1111
1106
1095
1081
1073
1065
1059
1054
1053
1048
1036
1030
1023
1014
1011
1012
1011
1008
1005
999
994
992
992
992
987
980
974
975
975
975
971
970
969
972
973
972
964
957
955
959
961
966
966
962
958
956
957
960
960
958
957
956
960
967
971
968
966
961
963
968
966
964
963
966
969
970
968
965
961
968
976
979
975
973
972
971
970
974
975
974
974
973
973
979
981
974
973
973
975
978
979
977
975
976
974
971
969
966
965
962
964
966
967
966
963
964
966
965
963
962
961
960
967
969
968
965
964
962
965
966
963
960
957
960
962
963
964
961
958
955
957
960
962
959
955
950
955
959
959
959
957
957
961
964
961
962
961
958
960
964
961
959
957
959
961
961
962
954
952
955
960
965
966
965
960
959
959
960
956
958
958
957
963
962
965
959
956
956
961
963
962
960
958
959
962
966
965
962
963
963
965
967
966
967
965
962
961
961
958
959
957
960
964
969
972
971
965
964
966
977
979
986
986
993
1007
1020
1035
1038
1029
1025
1020
1012
1008
1007
1001
997
996
989
982
977
971
967
965
963
958
959
959
958
962
962
961
955
954
957
961
962
959
946
928
924
935
971
1028
1115
1212
1308
1370
1408
1426
1422
1389
1320
1214
1086
958
873
884
922
940
942
941
946
943
943
939
942
942
942
939
937
938
939
938
937
934
931
935
937
938
934
931
930
933
940
940
942
939
941
945
949
946
943
944
944
945
943
948
954
955
955
960
964
960
956
953
954
958
967
971
968
967
969
975
981
983
984
987
988
992
996
999
1001
1003
1004
1008
1015
1015
1018
1025
1031
1042
1050
1059
1060
1062
1071
1077
1093
1102
1103
1103
1107
1114
1123
1130
1131
1134
1132
1133
1134
1136
1133
1131
1127
1122
1119
1110
1103
1095
1086
1080
1075
1069
1059
1054
1048
1045
1044
1034
1029
1022
1020
1017
1013
1008
1006
998
993
987
988
986
984
979
975
976
975
974
968
964
959
958
961
957
954
950
952
954
958
959
958
951
946
945
946
951
950
949
948
951
955
953
951
950
946
950
953
954
952
949
950
950
954
955
955
951
954
955
957
958
957
960
961
963
965
963
962
963
965
966
965
962
959
957
960
966
965
964
962
960
961
967
972
969
964
961
962
964
966
964
961
961
961
961
962
961
961
956
953
955
958
959
961
954
955
956
957
956
953
949
951
954
957
954
952
950
950
950
953
953
950
947
949
951
956
955
952
950
951
952
951
954
953
948
946
946
951
954
952
944
941
945
947
947
950
947
949
949
951
954
948
946
947
944
951
949
946
942
945
944
944
943
944
947
948
951
946
945
941
938
940
943
946
950
948
948
945
944
945
947
945
943
945
944
947
950
946
945
945
946
948
945
940
941
947
953
953
953
951
948
949
949
951
950
950
946
947
951
958
960
964
962
966
973
981
996
1008
1011
1012
1007
1005
999
989
986
981
980
984
983
976
966
966
963
962
952
941
933
935
937
942
944
942
939
937
942
946
950
947
943
938
930
922
918
923
943
994
1081
1190
1290
1359
1394
1412
1415
1396
1343
1244
1116
988
860
858
894
916
916
915
918
924
923
924
918
922
923
925
928
922
919
920
923
927
925
921
918
917
919
924
927
920
923
923
927
929
931
929
927
927
932
932
926
924
924
929
933
938
943
941
935
930
936
945
943
941
938
940
942
952
957
956
956
958
963
970
967
966
966
971
979
989
994
999
997
998
997
1002
1004
1011
1014
1025
1031
1042
1049
1055
1058
1066
1076
1084
1093
1099
1105
1106
1111
1118
1123
1123
1122
1121
1123
1128
1128
1124
1117
1107
1106
1104
1101
1095
1082
1074
1073
1070
1064
1054
1044
1042
1036
1034
1031
1026
1016
1008
1008
1005
1003
1001
994
989
992
993
991
985
982
978
979
976
973
971
962
960
962
965
964
962
960
958
955
952
955
955
953
954
954
953
956
953
953
952
958
962
960
959
957
954
953
953
958
953
958
957
958
963
968
969
971
970
972
973
973
970
969
971
966
972
975
976
974
973
971
971
969
970
969
970
972
977
975
972
968
968
970
976
975
969
967
970
971
973
968
967
964
964
964
963
958
961
957
956
962
963
961
956
953
956
960
961
957
954
953
957
961
963
955
952
949
951
952
954
956
956
954
957
961
960
961
956
946
947
951
951
952
952
950
951
954
953
953
952
945
944
945
947
949
952
946
944
945
957
958
953
948
945
946
950
954
953
954
949
951
954
958
951
951
952
954
957
957
951
945
947
950
951
950
944
942
946
944
949
950
950
945
948
949
952
953
954
956
957
956
960
962
962
962
966
973
981
987
994
1001
1009
1014
1012
1009
1000
996
988
986
988
987
983
978
973
971
968
965
961
954
951
951
954
953
948
944
944
948
952
953
951
948
949
946
949
945
934
922
928
956
1012
1086
1178
1266
1339
1386
1411
1417
1408
1366
1290
1179
1051
925
866
880
918
936
936
934
936
940
940
938
938
933
935
932
932
930
931
935
935
935
931
932
935
936
931
933
935
938
939
940
942
941
939
941
945
944
942
937
937
944
947
947
945
946
946
952
954
952
947
950
956
959
963
963
965
966
966
969
974
977
975
976
976
984
992
996
997
998
1002
1006
1013
1016
1016
1018
1023
1034
1041
1043
1052
1052
1057
1066
1078
1087
1091
1090
1099
1106
1114
1120
1121
1126
1134
1137
1142
1143
1137
1135
1132
1132
1131
1127
1120
1113
1111
1105
1099
1090
1084
1072
1066
1058
1058
1053
1044
1032
1028
1025
1022
1017
1012
1003
998
998
1000
1000
993
987
985
983
984
979
976
971
967
968
967
970
965
961
958
957
957
955
952
949
949
951
952
955
955
951
950
948
953
959
958
953
951
949
953
954
953
952
955
957
962
959
958
954
956
955
955
955
957
954
952
952
957
958
957
957
958
965
968
964
958
954
958
961
965
961
962
963
965
968
971
973
969
965
959
960
969
971
969
964
961
961
967
972
968
964
959
958
961
959
957
956
954
960
962
963
962
955
959
961
964
963
958
953
958
963
962
961
960
956
953
956
959
961
961
957
957
960
966
974
968
959
958
958
960
961
966
973
974
975
969
970
973
975
982
983
988
991
985
978
973
972
970
972
974
977
979
987
992
999
998
993
988
986
990
993
994
998
1001
1002
1002
999
1000
995
995
1000
1000
1004
1005
1002
997
999
1004
1005
999
994
993
998
1002
1004
1000
1000
1000
1006
1014
1016
1018
1021
1021
1020
1023
1029
1034
1033
1044
1058
1066
1067
1064
1055
1057
1063
1064
1057
1047
1042
1039
1037
1034
1024
1015
1005
1006
1013
1018
1014
1010
1001
993
984
979
980
989
993
994
994
995
991
984
980
977
974
987
1020
1072
1145
1242
1333
1399
1430
1439
1429
1406
1356
1264
1136
1008
922
930
972
994
990
982
986
990
998
996
1000
998
994
989
991
993
992
986
981
981
980
980
976
974
974
978
980
987
991
989
990
994
995
995
986
980
979
980
991
998
995
989
987
990
996
1003
1002
999
995
993
1005
1016
1026
1032
1030
1024
1020
1016
1010
1010
1012
1023
1029
1030
1035
1037
1034
1038
1047
1052
1056
1061
1065
1075
1083
1089
1095
1094
1097
1106
1115
1120
1124
1127
1132
1138
1140
1149
1151
1154
1157
1162
1166
1166
1166
1162
1156
1151
1147
1142
1137
1129
1123
1117
1112
1114
1111
1100
1088
1087
1080
1074
1066
1059
1051
1049
1051
1050
1044
1036
1033
1033
1026
1019
1009
1002
998
996
1002
1008
1008
1001
993
989
993
1002
1003
998
992
986
992
994
991
988
986
990
993
993
995
995
993
991
990
996
993
988
982
983
988
995
994
992
984
982
982
992
996
996
993
995
997
1000
1001
997
994
992
992
993
993
988
985
988
990
996
994
994
990
987
989
990
991
988
981
982
988
989
987
983
986
988
989
982
979
976
974
973
978
979
976
973
973
973
975
974
971
973
965
967
970
972
969
965
960
961
965
968
963
953
944
947
960
970
972
969
962
959
961
967
967
960
953
953
958
962
967
967
965
963
963
965
961
956
950
944
946
949
955
956
953
957
960
963
958
947
945
950
960
969
971
967
960
957
956
957
955
952
950
951
949
946
947
946
944
943
947
952
959
963
961
965
970
973
982
987
988
997
1006
1022
1032
1039
1034
1025
1016
1013
1003
991
979
983
991
995
986
968
951
941
945
949
941
932
928
932
935
937
934
940
940
938
925
923
925
925
911
899
901
925
974
1049
1140
1238
1316
1365
1393
1404
1390
1349
1259
1131
1003
875
817
865
905
910
903
900
906
911
914
914
916
916
918
919
918
914
908
908
902
899
896
895
891
883
879
882
890
895
901
906
913
914
908
904
897
897
896
899
900
902
902
902
905
909
916
918
918
919
919
924
926
925
927
931
929
933
937
948
956
953
942
940
945
956
965
971
974
979
982
984
988
995
1002
1017
1027
1033
1039
1045
1052
1058
1064
1070
1077
1083
1087
1093
1099
1105
1106
1100
1095
1089
1085
1077
1069
1063
1058
1054
1049
1040
1032
1026
1022
1016
1006
998
995
984
975
970
969
964
962
958
954
950
946
944
939
932
929
930
931
930
930
927
920
915
912
912
911
910
911
911
912
914
918
919
914
913
912
918
919
921
920
921
922
920
921
924
924
928
931
933
929
926
925
925
927
931
938
940
942
939
934
932
934
938
938
941
942
939
936
931
930
931
936
944
949
944
936
932
932
935
932
938
933
931
933
938
942
937
929
925
930
935
937
936
934
929
927
930
923
922
917
915
918
921
924
926
927
927
927
926
926
921
923
924
928
931
929
930
929
930
929
928
933
927
919
917
921
922
927
925
925
927
925
928
927
925
922
923
932
935
936
933
925
926
927
935
939
937
934
934
945
952
954
955
949
953
954
956
959
970
980
994
1004
1008
1007
1002
990
987
983
980
979
969
960
952
948
946
947
948
942
933
928
930
929
931
926
925
927
931
934
935
929
926
924
916
908
905
920
958
1026
1125
1230
1318
1368
1395
1407
1401
1371
1294
1166
1038
910
814
848
889
899
897
899
906
909
912
911
909
912
909
910
908
907
909
913
912
910
905
900
903
904
909
911
913
910
909
913
916
919
918
914
914
917
917
919
923
918
915
918
921
926
928
929
929
931
935
943
947
947
942
939
941
941
946
951
954
960
966
969
967
962
967
973
985
993
1000
999
1004
1011
1025
1035
1040
1045
1044
1043
1047
1063
1070
1081
1085
1093
1102
1110
1113
1112
1115
1117
1119
1120
1114
1110
1102
1098
1095
1092
1086
1079
1074
1069
1068
1061
1051
1041
1037
1032
1029
1018
1006
997
997
993
993
989
980
974
970
973
973
970
966
963
957
959
958
952
948
950
953
954
952
948
942
936
937
935
930
926
921
922
925
929
932
935
934
931
925
929
932
935
937
933
935
936
943
941
941
937
934
938
944
944
943
940
940
941
943
946
944
946
949
951
955
956
953
947
948
949
950
953
955
948
946
949
952
953
951
951
953
956
954
950
947
939
943
940
945
946
946
945
942
946
950
948
942
936
933
937
942
942
942
937
933
930
935
940
943
939
935
935
936
939
935
935
938
939
939
936
933
931
928
926
931
934
934
931
933
936
942
937
933
933
932
932
933
929
929
925
925
928
932
936
936
931
930
929
934
933
935
932
930
925
929
935
937
931
930
935
936
932
928
929
931
936
945
946
948
949
956
961
971
975
984
994
1001
1004
1004
1004
1005
1004
995
994
994
987
973
957
950
950
952
953
947
937
932
928
928
934
936
937
932
932
934
934
929
925
922
922
920
911
903
901
916
956
1018
1112
1214
1294
1350
1382
1398
1393
1374
1324
1234
1106
978
867
853
882
907
906
907
910
915
918
917
915
914
911
906
906
905
906
908
910
909
910
910
913
917
922
920
917
912
910
910
912
913
915
913
920
923
923
920
917
920
922
926
927
925
928
930
935
940
941
937
935
934
939
943
942
943
942
948
949
954
955
954
951
949
958
966
972
974
974
977
985
988
995
998
1002
1004
1010
1016
1023
1028
1030
1034
1039
1046
1056
1065
1070
1073
1079
1089
1091
1099
1102
1109
1115
1122
1122
1113
1097
1091
1094
1098
1098
1092
1087
1084
1079
1074
1067
1058
1048
1041
1039
1035
1031
1023
1015
1009
1007
1003
995
989
985
983
982
984
981
977
969
961
956
954
948
944
940
938
940
943
937
931
924
925
931
929
931
930
925
923
923
924
923
922
920
923
924
925
925
926
920
921
918
922
922
922
920
922
929
931
929
930
930
925
922
922
922
918
921
924
925
924
925
927
928
925
927
928
932
931
936
942
946
942
930
913
901
897
903
908
910
913
911
912
919
931
941
941
923
904
901
916
933
948
942
928
919
927
933
915
890
882
891
893
878
862
868
890
896
892
885
876
878
884
889
890
892
892
890
890
889
890
894
897
893
889
891
894
897
892
887
887
890
891
891
889
886
885
888
890
894
891
887
887
891
896
891
884
876
881
888
892
895
893
890
888
889
888
888
889
887
890
885
886
889
892
887
887
889
891
892
891
889
889
890
894
897
896
895
892
894
899
902
902
907
908
915
921
929
938
946
955
959
961
962
959
954
951
951
955
950
940
928
922
922
921
916
912
909
908
909
904
903
895
891
888
893
896
897
901
900
898
898
894
887
878
885
911
964
1041
1139
1235
1306
1358
1392
1410
1405
1374
1303
1190
1062
934
829
819
844
866
870
874
873
875
875
881
886
892
887
886
889
890
892
889
892
890
881
876
879
888
898
901
894
893
888
886
893
892
889
890
894
900
901
897
894
898
902
910
912
907
904
909
915
920
921
915
919
921
923
929
934
933
929
926
929
938
943
944
946
943
950
954
959
958
958
958
966
972
979
979
982
985
991
999
1006
1007
1004
1010
1022
1034
1042
1041
1044
1048
1059
1064
1070
1075
1075
1077
1079
1087
1088
1089
1086
1086
1082
1088
1088
1086
1080
1070
1058
1051
1051
1055
1053
1047
1034
1019
1001
993
989
986
984
985
982
974
970
964
963
962
963
958
951
948
950
951
952
945
939
935
935
938
934
933
933
930
931
931
934
932
929
928
931
935
936
932
925
925
929
933
935
936
933
930
930
935
941
940
936
933
938
941
941
940
939
941
948
951
950
953
950
951
953
955
957
956
956
955
957
960
962
960
954
950
953
957
959
955
954
952
951
950
946
950
951
951
950
951
950
951
949
945
946
950
951
949
944
943
944
947
948
944
938
941
940
939
942
942
937
936
940
944
942
937
935
931
934
937
941
941
935
931
932
939
941
939
932
933
937
939
941
940
934
932
935
941
944
942
938
934
930
930
934
940
939
935
936
941
943
938
937
937
938
942
940
944
944
944
941
944
946
943
934
936
942
947
946
942
937
937
945
951
954
958
955
957
960
970
977
980
978
983
990
1000
1012
1017
1013
1012
1014
1015
1014
1014
1005
997
989
983
979
974
966
963
963
962
958
957
951
949
952
954
957
955
948
944
945
948
949
943
934
926
918
928
960
1013
1093
1191
1284
1358
1403
1434
1443
1430
1395
1325
1214
1086
958
873
889
931
951
945
936
930
934
945
944
945
941
939
937
937
942
938
938
939
944
945
946
938
927
934
944
953
950
943
940
941
946
950
952
954
953
947
942
944
951
956
956
954
957
955
955
959
962
964
965
966
972
974
973
970
972
972
977
981
983
981
981
985
988
992
994
996
1002
1007
1006
1012
1015
1017
1021
1033
1037
1042
1046
1048
1057
1067
1074
1081
1086
1088
1094
1106
1114
1118
1121
1124
1132
1138
1142
1143
1138
1134
1138
1140
1141
1141
1137
1131
1131
1128
1127
1116
1107
1097
1091
1086
1079
1075
1065
1059
1054
1051
1048
1038
1038
1033
1032
1027
1020
1018
1019
1012
1010
1010
1005
1001
998
997
998
1001
1000
997
990
988
988
990
994
993
985
980
980
985
986
982
978
978
981
984
981
979
970
968
969
976
979
976
970
972
973
975
976
973
969
968
974
975
973
971
971
971
975
979
979
977
975
975
975
980
979
981
978
981
982
985
985
983
977
975
980
984
984
982
980
978
976
983
982
982
974
973
971
974
978
981
981
977
970
970
977
983
983
980
972
967
964
967
967
964
971
974
972
971
975
974
970
972
974
976
975
970
966
961
961
961
964
965
961
956
958
963
967
967
965
965
969
972
971
969
971
972
969
967
959
960
964
966
965
962
962
964
964
970
972
970
973
975
978
982
990
993
999
999
1009
1019
1028
1033
1034
1029
1030
1038
1045
1040
1032
1028
1025
1021
1012
1001
992
985
984
982
978
972
964
959
951
960
966
967
964
957
959
957
956
957
955
948
935
935
938
957
1000
1073
1179
1281
1364
1414
1435
1437
1418
1374
1279
1151
1023
895
869
904
935
941
930
927
936
937
941
942
937
933
934
936
937
935
935
932
933
938
938
934
930
929
934
941
943
936
921
916
933
940
941
939
936
936
939
941
942
943
942
940
943
946
953
953
950
948
954
958
950
945
948
963
974
971
966
965
960
958
977
981
969
972
978
981
981
993
999
1003
1003
1006
1012
1019
1025
1032
1032
1040
1048
1052
1060
1066
1070
1077
1082
1088
1096
1098
1102
1108
1113
1116
1121
1121
1114
1111
1114
1115
1111
1108
1101
1098
1091
1087
1085
1078
1068
1059
1050
1046
1043
1039
1032
1019
1010
1012
1013
1008
994
990
994
992
992
987
980
976
983
984
973
964
961
966
962
956
955
958
958
954
953
955
956
954
951
952
954
957
956
954
950
946
949
952
957
952
952
951
957
959
957
955
953
955
952
954
960
962
963
967
970
971
975
976
976
975
972
974
974
976
970
965
967
972
975
974
968
965
966
969
970
965
961
963
965
970
972
969
966
965
959
962
963
962
962
962
963
961
957
956
952
956
960
960
960
953
952
953
957
957
956
956
954
951
952
955
955
954
948
946
947
952
953
948
947
947
946
943
945
947
951
943
936
941
951
954
944
939
940
945
946
944
942
943
943
943
942
942
943
941
941
941
941
941
938
934
935
941
943
946
940
937
936
940
948
948
944
940
942
947
953
958
959
961
967
972
978
989
1000
1003
1003
1003
1006
1007
1001
999
993
984
977
964
957
952
947
946
942
934
927
922
925
927
930
930
927
923
924
926
926
922
910
898
892
892
911
961
1041
1155
1268
1356
1409
1433
1429
1408
1345
1237
1109
981
853
862
898
913
908
905
904
908
910
907
905
901
899
899
898
902
903
902
898
895
898
899
902
901
898
894
896
900
905
901
902
905
909
912
911
909
906
906
908
910
914
913
911
909
911
917
922
922
920
922
924
925
929
933
932
937
938
941
946
949
951
954
956
962
966
971
973
977
986
992
997
1002
1001
1005
1016
1025
1029
1034
1038
1043
1051
1059
1066
1068
1069
1067
1074
1078
1083
1081
1075
1068
1068
1075
1074
1067
1057
1050
1048
1045
1040
1035
1021
1013
1007
1006
1006
997
988
980
977
977
973
965
957
953
957
953
951
946
942
937
937
942
945
939
933
932
931
934
932
933
933
930
932
932
933
930
931
930
933
936
934
932
929
930
932
935
937
937
935
936
935
938
942
941
940
937
940
944
946
944
944
942
944
946
948
945
944
944
950
955
954
946
946
949
950
954
953
952
948
945
947
951
951
949
948
947
948
949
950
949
948
943
946
948
954
949
946
945
946
947
949
948
944
943
945
949
953
952
948
943
948
952
953
954
951
945
946
949
954
954
953
952
951
949
951
955
955
952
953
955
957
958
956
949
952
957
960
958
954
957
956
961
967
969
965
965
969
978
981
982
986
987
989
993
1000
1014
1024
1027
1029
1031
1034
1034
1029
1025
1024
1018
1009
1000
993
990
989
985
978
970
963
962
966
967
965
962
959
958
960
960
966
966
959
954
950
949
954
967
998
1063
1162
1267
1357
1411
1438
1444
1434
1403
1330
1212
1084
956
874
903
945
953
946
936
942
947
952
951
944
944
946
947
951
950
944
939
945
949
950
950
949
947
951
953
953
950
951
953
953
954
958
960
955
954
955
957
962
963
963
961
963
967
972
970
968
969
971
975
977
978
978
978
982
987
991
991
991
991
996
1001
1008
1012
1018
1022
1031
1035
1031
1027
1031
1043
1053
1061
1066
1072
1076
1081
1089
1098
1106
1111
1111
1114
1119
1121
1126
1124
1124
1124
1131
1128
1122
1111
1108
1102
1102
1100
1094
1087
1079
1072
1066
1063
1061
1048
1038
1029
1027
1027
1025
1016
1008
1004
1003
1002
1003
999
990
984
984
983
986
980
971
965
968
970
973
972
966
962
964
969
970
966
965
961
961
967
969
967
967
966
967
970
972
971
969
970
972
975
977
980
977
980
981
985
985
983
984
983
985
986
984
982
983
979
979
982
985
985
981
978
977
980
983
981
979
973
977
978
976
976
975
972
971
972
974
972
967
965
965
969
971
970
967
966
965
967
971
970
967
967
970
970
966
958
957
960
965
963
966
965
963
959
960
960
963
963
958
957
955
959
961
962
959
953
957
960
962
960
957
956
957
958
962
959
955
955
957
962
966
969
970
966
976
984
985
989
991
996
1007
1013
1018
1021
1022
1018
1019
1020
1025
1023
1011
995
985
980
980
979
969
958
956
954
956
955
954
948
946
946
946
949
948
945
945
943
940
928
913
906
918
948
1010
1103
1215
1319
1398
1442
1455
1448
1418
1356
1250
1122
994
880
887
926
943
941
938
939
936
932
931
928
933
932
928
926
927
925
928
929
924
922
920
922
926
927
926
926
925
929
931
926
924
923
924
932
937
937
935
930
930
936
944
944
938
936
939
944
949
947
946
948
951
955
958
960
957
961
961
962
969
972
969
971
976
981
984
993
993
994
996
1004
1007
1014
1017
1021
1027
1034
1039
1045
1046
1051
1056
1061
1067
1070
1070
1073
1076
1079
1084
1083
1080
1081
1080
1082
1080
1074
1070
1064
1064
1061
1059
1051
1045
1036
1033
1028
1024
1018
1010
1004
999
994
995
991
984
977
978
980
982
978
974
968
966
965
968
970
965
960
959
962
965
966
961
957
962
962
964
967
963
965
961
963
968
968
968
968
967
968
972
971
968
968
971
973
978
975
974
971
972
975
978
976
975
977
976
976
980
977
975
971
974
978
979
982
979
976
974
976
977
978
979
979
979
980
977
973
967
967
970
970
966
966
965
960
959
960
967
966
960
960
963
963
964
965
961
960
961
963
968
966
969
967
968
969
968
967
964
960
960
962
965
965
970
967
960
960
961
965
966
963
963
964
967
969
968
970
966
966
968
968
967
963
961
968
980
983
983
982
987
992
998
1002
1006
1020
1029
1033
1034
1031
1031
1027
1030
1030
1031
1020
1007
999
991
991
988
978
971
961
956
961
964
960
955
955
953
957
964
964
960
956
950
946
935
924
922
939
983
1058
1161
1268
1353
1408
1436
1447
1438
1406
1342
1231
1103
975
888
898
928
943
941
939
944
944
944
938
935
935
939
938
936
934
935
935
936
935
932
932
933
935
938
939
938
934
934
936
938
939
939
933
936
935
940
941
941
940
941
943
946
946
945
946
947
950
952
953
953
949
952
951
956
961
960
961
965
967
973
973
970
969
973
976
982
984
987
988
990
997
1003
1003
1005
1002
1009
1020
1022
1027
1027
1028
1033
1041
1050
1051
1053
1056
1060
1065
1072
1072
1074
1072
1075
1079
1086
1086
1082
1079
1080
1082
1083
1076
1073
1062
1055
1047
1047
1048
1048
1039
1036
1036
1037
1026
1013
999
996
1002
1009
1004
994
988
988
992
992
988
984
975
974
976
981
979
975
970
967
967
971
970
967
968
969
968
965
966
973
972
975
974
971
970
969
970
970
970
971
975
979
977
976
981
986
984
983
980
977
980
983
984
980
979
979
983
986
986
982
978
981
983
985
983
983
978
979
982
981
982
977
977
974
978
976
975
974
969
970
974
975
974
967
966
969
970
972
969
962
963
966
970
971
964
958
960
964
968
966
963
957
953
955
961
965
964
959
957
955
962
966
964
958
955
957
960
962
960
960
958
956
959
962
959
960
958
959
963
964
965
964
961
963
968
974
978
979
980
980
988
995
1001
1008
1018
1024
1031
1032
1031
1030
1032
1036
1033
1025
1007
989
984
985
981
978
972
965
954
950
952
955
955
953
951
953
952
956
956
953
948
941
933
922
918
929
958
1011
1101
1207
1307
1375
1417
1435
1437
1421
1374
1284
1156
1028
902
884
912
933
936
936
941
947
947
943
941
936
935
939
939
936
929
931
935
944
944
938
925
922
930
943
945
940
937
935
937
938
933
931
931
935
935
936
939
940
940
941
941
942
943
942
939
942
945
949
949
950
948
952
954
959
960
957
955
955
962
967
970
968
974
979
984
991
993
992
984
983
989
997
1002
1001
998
1003
1008
1017
1022
1019
1022
1031
1036
1044
1047
1045
1048
1053
1060
1062
1064
1059
1059
1061
1062
1065
1061
1056
1053
1054
1056
1052
1047
1039
1031
1031
1029
1024
1019
1017
1011
1008
1006
1005
1001
995
989
986
984
977
973
971
970
971
967
970
962
957
955
958
963
963
963
965
963
960
961
961
962
961
953
954
957
962
964
962
956
959
960
963
962
961
961
959
963
967
966
965
964
963
968
975
969
960
960
966
969
970
967
966
966
964
967
970
970
969
962
965
966
966
965
963
958
953
954
961
962
962
962
963
962
964
962
957
950
950
956
954
951
951
949
948
954
958
957
954
951
953
959
957
955
952
951
953
958
955
952
953
954
957
957
960
956
947
942
945
950
954
958
954
949
951
953
958
962
963
962
964
968
980
986
985
982
977
984
1001
1013
1015
1009
1010
1012
1017
1013
1008
999
994
990
986
978
974
968
964
958
959
957
953
947
948
952
955
953
945
937
940
947
951
947
944
937
938
944
960
986
1035
1109
1204
1287
1354
1394
1409
1404
1384
1336
1247
1124
996
891
868
886
911
919
912
911
916
924
932
937
933
929
923
923
927
929
927
925
925
930
935
937
938
937
934
931
929
931
935
935
932
932
939
939
941
938
938
936
935
939
941
940
934
936
941
950
950
946
946
951
954
954
953
953
955
958
961
960
957
956
961
968
976
977
974
974
980
981
982
983
984
985
990
995
1003
998
998
999
1007
1012
1015
1021
1025
1032
1042
1053
1056
1058
1051
1054
1058
1059
1061
1066
1068
1066
1070
1073
1077
1077
1074
1067
1068
1069
1066
1062
1056
1049
1046
1046
1042
1038
1028
1020
1018
1016
1012
1011
1009
1002
1000
999
998
994
989
990
990
987
987
984
977
972
974
972
977
978
973
968
968
972
976
980
977
970
970
973
977
976
967
970
971
978
985
984
982
978
975
976
983
983
983
983
983
988
992
991
987
984
986
993
1000
997
987
982
985
988
990
990
987
984
983
986
990
989
985
982
985
988
986
984
983
979
981
982
983
979
973
974
976
979
980
976
974
972
970
969
973
971
971
966
970
970
978
977
974
970
973
978
981
979
978
978
985
990
992
992
991
988
994
999
1010
1017
1024
1020
1017
1020
1030
1036
1038
1034
1031
1023
1021
1014
1005
994
991
989
982
977
971
967
965
965
969
966
963
964
964
969
974
974
970
968
968
967
966
960
962
978
1010
1060
1125
1212
1289
1345
1386
1404
1402
1377
1321
1232
1121
1005
921
894
909
924
929
930
936
941
948
947
949
952
952
956
952
951
956
955
949
944
942
948
952
951
950
952
953
957
951
949
952
955
954
953
957
961
961
960
962
963
963
956
951
954
959
957
960
967
974
977
971
967
964
968
973
979
981
975
976
980
987
990
991
989
995
997
999
997
1000
998
999
1001
1005
1005
1007
1009
1015
1026
1034
1039
1039
1037
1037
1044
1051
1050
1048
1048
1052
1053
1050
1051
1052
1055
1058
1061
1058
1052
1048
1045
1046
1045
1043
1034
1028
1025
1024
1019
1011
1005
1006
1006
1004
995
991
990
989
979
974
973
976
975
970
965
967
967
972
972
969
967
966
972
975
969
964
967
969
972
976
979
980
977
977
981
983
984
986
986
988
992
994
995
995
994
995
997
998
995
997
993
994
998
997
993
992
994
995
1003
1003
995
983
977
983
990
992
992
989
986
984
984
985
983
977
979
978
975
980
981
980
979
977
972
968
966
964
965
966
968
975
975
974
960
957
957
962
965
962
959
961
966
969
971
970
967
965
961
966
967
961
958
960
966
966
961
962
964
958
963
972
976
972
980
984
990
995
998
996
997
1004
1013
1024
1032
1033
1029
1026
1023
1019
1013
1005
1000
991
987
985
977
971
959
953
952
957
958
956
957
957
958
960
957
951
949
949
948
945
939
940
949
968
1019
1104
1208
1294
1356
1396
1417
1411
1370
1294
1186
1059
940
879
889
920
936
938
938
939
944
941
939
934
937
938
936
929
922
927
932
934
934
934
930
935
936
938
938
936
931
933
936
939
937
936
935
938
942
948
948
948
943
940
940
945
947
946
939
939
942
949
952
949
950
952
956
962
961
962
962
964
967
978
980
974
971
971
977
987
988
991
993
995
1002
1007
1007
1011
1010
1012
1014
1021
1024
1025
1027
1029
1037
1042
1046
1041
1039
1043
1051
1055
1048
1046
1042
1038
1040
1042
1041
1034
1027
1020
1024
1024
1021
1014
1009
1007
1007
1006
1001
995
990
990
992
991
992
987
982
985
987
982
981
981
978
980
982
984
983
984
981
984
989
996
998
990
985
984
987
990
991
991
989
988
990
997
998
996
993
989
989
994
995
994
995
992
993
995
995
991
988
989
992
994
998
999
994
990
988
985
987
985
982
978
980
984
987
986
982
980
983
985
983
980
976
976
980
982
980
978
976
976
977
981
976
975
969
971
973
976
976
973
970
970
973
976
978
978
974
968
973
974
971
965
963
963
970
977
978
977
971
968
971
974
976
974
971
969
970
976
975
975
970
973
976
982
985
988
992
997
1003
1006
1003
998
997
1008
1027
1041
1045
1041
1038
1037
1038
1042
1035
1028
1017
1002
999
997
993
986
973
974
974
977
975
973
972
974
980
983
981
970
954
945
945
958
993
1055
1154
1264
1362
1422
1452
1455
1439
1390
1302
1182
1054
926
900
934
962
965
965
964
966
963
962
963
959
954
946
946
951
953
954
953
951
949
954
960
958
957
954
954
954
960
961
958
956
956
960
963
960
958
960
961
964
968
968
969
969
968
970
976
975
975
974
976
979
985
985
984
983
983
991
995
996
997
997
1000
1006
1012
1014
1012
1011
1015
1021
1029
1029
1027
1030
1032
1035
1042
1047
1049
1050
1054
1055
1062
1066
1064
1062
1063
1068
1072
1071
1063
1058
1060
1060
1060
1062
1051
1044
1043
1042
1040
1037
1028
1023
1024
1023
1024
1019
1013
1005
1006
1008
1010
1005
997
995
993
996
999
996
992
989
991
994
998
999
997
993
994
996
1001
999
999
997
998
1000
1002
1003
1003
997
1000
1002
1007
1006
1002
999
1000
1001
1003
1005
1005
1004
1004
1006
1011
1013
1010
1007
1005
1008
1009
1010
1007
1003
1004
1008
1009
1005
1002
1000
999
998
1005
1002
1001
1000
1002
999
1003
999
998
997
994
996
996
996
998
996
993
992
997
994
992
989
990
992
995
992
992
988
985
986
992
992
985
984
987
990
990
989
988
985
985
988
991
991
992
988
986
989
994
996
996
996
1000
1008
1013
1018
1015
1015
1018
1026
1042
1051
1054
1050
1050
1055
1059
1059
1056
1048
1041
1029
1022
1017
1007
1001
993
988
988
987
984
982
979
979
987
986
986
980
979
975
975
962
945
940
955
1003
1084
1194
1309
1392
1442
1464
1463
1449
1410
1321
1193
1065
937
902
938
965
970
969
968
973
972
965
962
963
964
961
956
954
954
959
960
958
956
955
955
959
958
960
954
950
948
952
958
961
958
955
956
960
964
966
966
961
963
964
968
973
973
970
972
976
980
982
983
982
983
984
990
990
992
991
990
995
1000
1004
1003
1006
1009
1015
1019
1023
1021
1021
1024
1028
1035
1038
1038
1039
1045
1049
1051
1056
1053
1054
1057
1061
1066
1070
1065
1065
1065
1067
1069
1063
1064
1055
1052
1053
1053
1050
1047
1039
1038
1038
1035
1029
1020
1019
1019
1019
1018
1013
1007
1001
1000
1000
1004
999
1003
999
998
999
1000
999
997
994
995
997
999
1000
999
999
1002
1002
1003
1007
1004
998
1000
1002
1008
1008
1008
1003
1004
1007
1007
1004
1004
1003
1004
1008
1011
1009
1008
1006
1008
1007
1007
1008
1007
1005
1003
1004
1006
1007
1006
1002
1001
1003
1004
1002
998
993
995
996
1000
1001
997
992
993
992
996
994
992
987
983
983
990
992
988
984
985
986
988
987
983
980
979
981
985
986
982
978
981
981
984
982
978
976
977
977
982
982
980
977
975
977
980
979
980
980
982
988
990
995
995
995
998
1005
1010
1014
1015
1018
1029
1039
1046
1046
1042
1036
1036
1042
1045
1039
1023
1008
1000
995
995
988
978
970
967
970
973
971
968
964
963
964
968
969
967
963
959
950
939
923
918
929
967
1032
1127
1238
1333
1402
1434
1447
1440
1419
1364
1261
1133
1005
886
891
930
952
950
946
947
952
944
940
938
934
937
936
933
933
930
933
935
935
932
929
928
932
936
937
935
933
933
935
935
936
935
930
933
937
940
942
939
938
937
941
944
946
942
939
941
946
951
951
954
955
956
959
964
968
965
963
967
967
972
976
977
976
979
986
989
993
993
988
992
1000
1006
1013
1010
1007
1005
1008
1017
1021
1022
1019
1023
1029
1030
1031
1034
1031
1030
1032
1035
1034
1031
1023
1027
1022
1020
1020
1015
1011
1009
1007
1006
1003
998
994
992
990
992
988
982
980
980
981
982
982
978
974
973
975
980
981
981
976
975
980
983
987
984
979
983
985
991
992
985
983
983
984
985
987
983
983
985
989
992
992
985
982
979
982
987
989
989
986
986
987
988
990
988
983
984
986
987
984
981
979
977
979
983
980
980
975
975
977
978
975
975
971
972
975
975
976
972
971
970
972
975
979
976
973
965
963
967
972
974
971
969
966
970
973
971
969
966
967
969
963
964
962
965
968
971
972
968
964
967
968
971
973
970
965
966
970
974
976
975
977
985
989
994
998
1000
997
998
1007
1018
1032
1039
1037
1036
1036
1039
1040
1037
1033
1026
1018
1009
1002
996
990
983
977
976
970
960
951
950
961
963
964
961
955
957
958
957
956
950
936
928
919
923
943
982
1045
1137
1242
1331
1392
1423
1432
1427
1415
1381
1308
1195
1067
951
893
900
928
944
944
947
951
956
956
952
948
943
942
945
942
938
932
930
938
947
950
948
939
938
940
944
948
947
944
946
947
949
953
950
949
947
948
948
947
943
941
947
955
961
957
955
956
954
959
961
961
961
958
960
964
970
970
972
976
976
980
981
979
976
976
977
977
987
990
991
992
991
995
996
999
998
997
1000
1005
1008
1010
1011
1013
1017
1021
1026
1031
1031
1028
1027
1023
1019
1016
1017
1025
1025
1028
1028
1028
1023
1023
1022
1020
1021
1017
1016
1012
1013
1011
1012
1011
1007
1004
1000
999
996
994
988
981
978
977
982
983
981
978
976
982
984
982
982
979
982
984
984
983
983
972
972
980
989
989
986
979
984
985
989
988
986
987
988
987
988
991
990
989
990
993
994
993
988
989
988
991
993
997
996
991
988
988
989
986
989
984
985
986
987
987
981
979
981
982
984
981
981
976
975
977
981
977
975
973
970
973
975
973
970
969
968
970
971
970
968
965
964
966
967
968
966
963
960
965
968
968
970
966
965
965
967
967
963
962
962
962
964
966
963
960
962
966
970
972
976
979
982
986
988
991
990
989
1001
1015
1029
1035
1035
1030
1031
1035
1037
1034
1029
1016
1004
998
996
992
987
975
964
958
955
955
956
952
951
955
960
958
952
947
948
949
951
945
931
916
916
936
977
1044
1139
1238
1323
1385
1418
1431
1429
1417
1384
1325
1218
1090
962
852
851
890
920
932
936
936
938
936
942
941
936
930
929
927
931
933
932
929
930
930
932
934
931
926
927
932
937
938
936
932
932
937
939
937
937
936
936
941
944
948
947
944
946
947
953
952
952
948
950
954
957
959
955
953
954
955
964
963
961
962
969
979
984
982
980
976
976
976
986
991
991
987
989
995
1000
1005
1004
998
1000
1006
1015
1019
1019
1015
1013
1016
1018
1025
1031
1032
1034
1032
1034
1032
1032
1030
1027
1031
1035
1033
1032
1030
1024
1023
1022
1024
1022
1019
1017
1013
1013
1007
1004
999
997
999
996
996
994
994
993
995
999
999
997
991
988
990
991
991
988
988
990
993
996
996
996
994
993
991
996
999
997
994
998
1001
1002
1001
1001
998
996
996
1000
1004
1001
1001
1001
1004
1006
1005
1006
1003
1000
999
1001
1000
999
1001
1002
1004
1000
993
984
984
992
997
1001
999
994
985
978
977
982
984
983
977
976
978
981
979
978
976
975
975
978
977
976
973
968
969
972
967
968
963
966
967
974
970
970
970
967
970
968
966
965
966
966
968
973
978
976
975
974
976
979
981
981
982
985
988
992
1000
1010
1018
1023
1029
1031
1032
1033
1031
1031
1026
1020
1013
999
988
984
976
974
966
961
952
952
952
958
956
954
951
949
951
954
956
952
943
932
924
931
959
1007
1082
1186
1292
1371
1410
1422
1410
1386
1330
1227
1099
971
847
844
878
908
919
920
919
925
929
934
932
925
924
921
921
926
925
924
920
914
918
924
926
925
919
918
920
921
923
924
921
923
923
928
926
926
922
923
924
928
929
930
927
930
931
935
936
932
931
931
932
941
941
945
942
943
944
950
953
952
951
951
955
960
964
966
963
962
966
969
971
973
974
977
983
984
986
985
985
990
993
997
1002
1002
1001
1002
1002
1008
1007
1007
1007
1007
1005
1009
1006
1001
997
995
997
997
995
990
986
983
981
979
978
973
967
966
963
965
963
959
955
955
953
954
957
952
947
946
949
953
952
952
946
947
948
956
954
954
954
952
954
957
958
954
953
955
957
960
963
960
956
957
961
962
964
962
959
957
962
964
964
961
961
960
960
965
964
962
960
958
961
960
959
957
955
953
953
954
959
957
952
950
952
951
949
948
944
942
946
948
947
944
941
943
941
944
946
944
939
939
941
940
941
940
938
936
938
942
942
940
940
937
942
945
949
951
951
954
962
968
970
971
975
985
1002
1012
1013
1011
1010
1012
1014
1016
1007
999
987
983
977
968
953
936
929
931
940
945
952
943
935
922
917
915
925
929
928
926
921
913
903
901
912
948
1011
1105
1214
1308
1371
1400
1408
1401
1361
1279
1159
1031
903
853
878
903
910
908
911
913
921
921
916
915
914
914
916
910
906
908
910
911
915
915
913
914
914
915
916
918
915
913
916
916
919
918
915
914
919
924
926
925
922
923
924
929
931
931
929
929
931
937
937
934
932
937
940
945
948
947
942
939
943
948
954
956
953
956
961
963
963
965
965
970
974
980
981
978
980
984
988
990
994
995
996
996
997
1004
1006
1002
997
999
1001
1001
1000
1000
996
995
995
995
993
989
983
979
978
978
973
969
963
959
960
953
950
951
946
945
946
947
943
939
938
935
942
945
943
944
943
942
945
948
948
948
941
945
947
951
955
953
946
949
954
958
958
958
954
953
957
963
959
961
956
954
956
963
965
963
960
957
963
963
963
962
958
956
957
961
962
960
956
953
957
959
959
953
950
950
951
956
953
953
950
949
952
952
953
950
948
950
951
954
956
955
959
961
968
970
974
975
974
983
994
1005
1013
1014
1013
1012
1013
1018
1019
1012
1000
989
980
977
973
966
957
949
948
947
946
945
940
935
937
944
944
941
939
937
939
940
936
929
929
947
985
1051
1137
1239
1320
1371
1396
1398
1377
1321
1219
1091
963
869
866
894
911
911
910
916
922
925
923
921
922
923
923
923
917
917
919
922
925
923
921
919
922
924
926
927
923
922
921
927
930
930
924
924
928
931
931
931
930
932
937
939
941
941
938
939
942
945
950
948
946
948
953
956
954
961
957
962
964
970
975
977
975
977
982
986
990
990
990
992
997
1005
1008
1008
1005
1009
1014
1018
1023
1025
1023
1023
1025
1027
1026
1028
1026
1024
1020
1018
1018
1018
1018
1012
1011
1013
1010
1005
997
990
987
985
981
975
968
965
965
968
966
963
958
955
954
959
960
956
953
953
954
956
958
953
953
953
954
956
959
956
954
953
960
963
964
965
961
961
964
967
969
971
971
969
969
973
975
975
974
972
974
975
977
978
974
976
975
981
981
977
978
976
978
980
980
976
973
971
974
976
975
972
969
967
968
969
971
970
966
965
965
968
968
967
965
962
963
967
972
974
976
980
985
991
993
991
991
996
1004
1020
1030
1033
1030
1025
1027
1031
1031
1023
1008
994
988
983
983
971
960
953
953
953
950
949
945
945
946
951
950
948
945
942
939
932
922
908
906
931
978
1057
1168
1277
1357
1406
1428
1427
1410
1356
1258
1130
1002
874
877
918
937
940
932
933
935
932
926
918
921
924
922
920
918
911
918
918
918
916
912
910
913
916
918
918
914
914
915
918
918
919
921
919
925
926
926
922
923
922
924
930
931
932
931
929
931
938
940
942
942
941
943
947
950
950
947
951
954
958
963
963
960
964
967
971
973
976
977
980
984
989
993
996
996
996
1002
1008
1011
1011
1013
1013
1017
1020
1023
1021
1015
1014
1017
1020
1020
1020
1013
1010
1008
1007
1006
1004
996
989
988
988
985
981
977
971
970
970
967
960
955
955
955
959
959
954
950
950
947
954
959
956
949
948
951
949
952
955
954
951
949
952
956
953
953
952
956
960
960
957
955
960
963
966
965
962
959
957
957
960
967
969
968
963
960
963
966
967
961
962
962
965
967
966
963
962
964
965
965
966
959
958
957
961
960
961
960
960
959
960
959
958
954
953
955
958
958
959
957
958
962
969
973
974
974
976
979
986
992
996
1004
1009
1019
1026
1025
1020
1019
1021
1021
1018
1011
997
984
979
975
968
964
956
947
942
943
943
948
946
940
940
942
944
946
943
938
936
932
926
913
901
902
928
987
1079
1196
1304
1377
1412
1427
1425
1403
1340
1228
1100
972
861
882
920
931
926
922
925
927
928
920
913
913
918
918
916
909
907
909
909
910
909
907
907
907
910
911
910
912
908
911
915
915
915
909
909
911
914
919
918
918
917
917
919
922
921
921
919
923
926
925
927
926
928
932
935
935
936
937
936
940
944
947
949
949
952
953
960
964
966
964
968
973
977
982
981
980
985
991
996
997
1000
999
1002
1006
1010
1011
1011
1008
1004
1005
1007
1006
999
1000
995
996
995
991
986
981
975
974
972
970
964
961
959
956
954
951
948
942
941
940
942
940
938
935
934
935
938
937
933
932
931
932
936
937
935
934
931
933
936
939
936
937
933
935
939
942
942
941
940
941
943
946
945
942
940
941
946
948
947
945
945
950
946
950
948
946
947
947
949
948
946
944
940
945
947
949
948
945
944
945
948
950
946
945
944
944
945
945
945
937
941
943
943
943
941
938
937
940
943
942
939
935
933
937
939
942
940
939
935
941
942
945
942
941
943
945
948
956
960
960
962
965
970
974
978
982
994
1006
1013
1018
1014
1009
1012
1015
1018
1011
999
981
973
970
963
959
947
939
932
935
936
936
935
932
931
933
933
935
934
931
931
927
919
911
913
927
969
1042
1144
1251
1334
1384
1407
1417
1411
1372
1294
1172
1044
916
855
874
908
921
917
918
921
926
927
922
919
918
922
918
921
916
914
916
916
915
916
918
916
919
922
923
921
918
918
917
919
923
924
921
920
924
929
930
928
926
926
929
938
938
940
939
937
938
944
946
944
939
942
945
951
954
957
956
956
960
963
967
968
966
969
974
979
981
984
982
984
989
997
1004
1003
1004
1007
1009
1016
1021
1022
1023
1029
1032
1038
1042
1042
1039
1041
1042
1044
1046
1045
1042
1039
1039
1040
1041
1038
1033
1029
1029
1025
1019
1012
1008
1004
1006
1003
999
995
988
984
980
980
975
973
966
963
962
966
963
959
955
953
955
956
953
953
948
947
949
949
949
945
938
941
940
944
946
944
941
943
945
949
950
948
945
944
946
948
950
950
948
947
951
953
956
955
954
952
955
958
960
959
956
957
960
962
959
962
956
957
960
961
960
956
956
954
955
957
955
952
947
946
946
949
951
946
943
940
940
938
942
940
936
936
933
935
937
934
934
934
933
935
935
931
929
930
931
938
938
940
937
939
942
948
953
954
952
954
959
964
971
980
986
990
994
999
997
992
995
995
992
987
978
967
957
949
949
944
938
931
927
924
922
922
923
923
918
917
919
921
921
919
915
908
904
898
892
897
914
954
1020
1111
1213
1300
1358
1394
1414
1412
1386
1323
1217
1089
961
844
847
879
895
894
892
895
902
903
900
899
897
898
895
894
892
891
892
894
896
894
892
890
892
894
895
892
890
891
894
897
901
898
898
896
898
901
902
899
898
898
903
903
908
910
907
906
910
915
917
916
916
918
917
924
924
927
925
926
931
934
939
941
941
940
947
950
958
960
963
966
971
974
980
986
989
990
996
1005
1009
1013
1013
1015
1021
1026
1031
1033
1030
1033
1034
1038
1040
1037
1031
1030
1030
1030
1029
1026
1020
1011
1009
1008
1005
1001
996
991
988
988
987
984
977
974
974
975
974
973
968
965
965
968
967
966
962
960
962
959
964
958
958
962
958
961
962
962
960
958
962
967
970
965
966
965
968
971
974
972
970
974
978
980
982
981
980
981
983
985
987
986
985
984
985
986
989
988
984
983
987
990
990
987
985
984
982
984
985
984
981
980
983
986
986
981
980
978
975
977
980
979
975
970
975
975
977
974
970
968
969
974
974
968
969
964
969
973
978
976
978
984
988
994
997
998
998
999
1008
1017
1025
1029
1025
1023
1023
1024
1027
1022
1016
1002
996
990
986
980
973
961
961
959
955
952
950
949
948
951
953
949
948
946
948
949
950
946
939
927
922
927
949
986
1047
1139
1242
1328
1389
1419
1423
1412
1382
1325
1224
1096
968
889
891
923
938
936
932
929
930
933
938
932
926
923
922
926
924
923
920
917
920
922
925
922
923
920
920
922
923
926
922
922
927
930
931
928
926
925
927
932
932
931
928
928
929
935
936
934
934
935
939
941
943
942
943
942
950
952
954
955
953
954
958
963
967
963
967
969
974
977
981
983
984
987
993
998
1004
1007
1010
1012
1016
1022
1026
1029
1031
1032
1035
1040
1045
1045
1039
1039
1042
1044
1045
1041
1037
1030
1027
1029
1024
1020
1015
1010
1006
1003
1002
995
989
984
982
980
977
970
967
967
964
967
964
960
952
952
952
952
952
952
949
947
945
947
950
945
942
938
942
945
949
950
946
947
946
949
949
951
946
950
952
955
956
957
952
952
954
957
960
957
956
954
958
959
963
964
962
961
960
964
966
966
965
963
962
966
965
967
964
962
962
966
969
966
961
959
963
965
965
962
960
957
957
960
958
960
956
952
952
953
954
954
954
951
950
951
952
952
951
951
952
951
951
947
949
946
949
951
950
951
948
947
946
949
948
948
946
945
947
948
949
946
946
946
948
951
954
953
948
947
952
956
960
961
959
962
966
976
977
979
977
977
986
999
1007
1011
1011
1011
1014
1014
1018
1017
1013
1008
999
993
988
979
973
967
965
961
959
955
951
947
951
951
953
949
944
944
945
950
949
948
942
937
935
933
935
944
974
1022
1098
1190
1275
1344
1382
1402
1407
1400
1375
1322
1232
1112
988
912
901
922
937
935
932
935
939
939
937
933
931
933
938
936
932
929
927
929
929
929
930
929
927
931
933
932
929
930
933
933
934
936
931
932
933
936
937
935
937
934
937
940
940
941
942
940
944
946
948
949
948
947
949
951
954
953
953
956
960
965
966
967
968
968
974
979
981
984
984
981
987
998
1007
1006
1005
1009
1016
1021
1028
1026
1028
1032
1040
1043
1049
1051
1050
1054
1059
1063
1062
1061
1056
1053
1053
1054
1054
1048
1045
1039
1035
1034
1032
1023
1022
1015
1010
1009
1005
1000
994
987
984
983
983
981
975
972
970
971
970
968
963
959
959
963
961
960
956
953
953
955
956
954
950
947
950
953
957
957
952
952
955
961
963
960
959
959
962
963
966
964
963
963
965
968
971
971
970
971
971
974
977
980
980
974
980
980
982
981
979
978
980
977
982
983
980
979
977
978
980
975
975
975
974
973
978
979
975
972
967
970
972
971
969
965
968
972
973
968
963
962
964
968
966
965
962
959
961
962
963
962
961
959
959
963
963
961
960
956
960
961
959
958
958
957
958
958
962
960
958
956
958
961
964
964
963
958
960
960
963
962
954
955
957
957
962
960
959
956
958
958
959
959
955
955
956
959
961
960
958
954
955
959
962
958
954
956
956
956
959
957
953
952
953
958
962
958
955
953
957
958
959
960
956
954
956
961
962
963
957
956
958
961
962
961
960
961
965
969
974
979
979
982
984
990
995
997
1001
1004
1016
1025
1027
1029
1024
1019
1015
1013
1010
1004
994
987
984
983
976
973
966
961
960
964
964
964
960
955
960
962
966
963
960
954
951
948
950
959
982
1027
1097
1186
1263
1326
1365
1387
1391
1385
1357
1292
1197
1081
977
931
939
958
957
953
952
954
958
955
950
942
943
944
945
942
939
939
938
939
942
937
937
936
937
940
943
942
940
937
937
941
943
945
945
943
945
946
949
948
947
946
948
947
949
951
948
949
952
956
961
960
958
958
961
964
970
972
971
972
971
979
983
983
984
984
986
991
995
999
1002
1004
1006
1012
1018
1021
1020
1021
1024
1032
1039
1043
1045
1049
1052
1059
1063
1066
1064
1062
1066
1070
1071
1071
1068
1066
1065
1065
1066
1059
1054
1045
1043
1040
1038
1032
1022
1018
1015
1013
1009
1006
998
995
991
991
989
986
979
975
978
977
978
972
970
967
967
969
970
964
962
962
963
961
967
964
960
962
960
965
968
964
964
961
966
967
968
968
967
966
966
969
973
973
971
972
972
976
978
977
974
974
973
979
982
978
980
977
977
981
981
978
977
976
976
979
980
979
975
974
975
976
976
976
974
968
970
973
976
973
969
968
968
969
974
970
965
966
967
967
969
967
964
964
963
965
968
966
965
963
963
964
967
964
963
961
961
961
963
963
959
960
959
961
963
961
958
958
958
961
963
958
960
957
960
961
966
963
959
955
958
961
962
962
961
960
961
964
964
963
961
958
961
964
968
965
963
958
958
963
965
962
963
957
958
962
964
962
961
962
962
966
966
965
963
962
963
965
966
966
962
963
966
967
973
974
974
974
979
981
989
992
990
994
997
1008
1018
1027
1028
1025
1025
1021
1017
1011
1009
1004
1002
999
994
991
981
977
975
970
969
965
962
962
965
966
970
967
966
964
962
966
964
961
956
960
985
1026
1086
1161
1235
1296
1339
1365
1372
1358
1328
1264
1175
1067
978
937
940
955
962
960
959
956
955
952
951
948
950
945
948
944
941
941
945
944
940
938
938
941
942
943
940
937
940
941
944
945
941
942
942
945
948
946
946
944
944
950
951
952
953
951
953
958
961
962
958
959
959
966
968
970
969
969
971
974
979
981
980
980
984
988
995
996
997
998
1003
1008
1014
1016
1019
1016
1024
1028
1032
1037
1040
1043
1047
1054
1059
1062
1061
1060
1062
1067
1068
1068
1064
1063
1063
1061
1064
1057
1053
1049
1046
1046
1043
1034
1029
1024
1021
1021
1018
1012
1007
1000
997
995
995
992
987
982
982
983
984
978
976
973
971
973
974
969
967
965
966
967
966
967
966
963
967
969
973
973
969
968
971
974
978
977
975
972
977
982
986
983
984
981
983
988
992
988
989
988
988
990
993
992
989
989
988
991
994
994
991
989
988
993
993
993
988
984
986
987
987
986
985
982
982
984
984
983
982
977
975
977
982
978
975
976
976
977
976
976
974
970
972
975
976
975
974
970
971
974
978
976
972
971
967
971
974
969
969
966
966
968
973
972
966
968
966
969
973
971
970
967
967
969
973
971
967
968
968
967
969
968
968
968
969
970
973
974
972
970
968
973
975
973
972
970
973
971
975
975
971
969
972
973
975
975
973
971
972
972
979
977
974
974
975
978
981
979
977
974
976
977
982
982
982
978
982
983
990
989
988
992
994
1002
1008
1007
1007
1010
1017
1027
1036
1041
1041
1034
1032
1028
1030
1026
1022
1013
1012
1007
1008
1001
994
989
988
987
988
983
986
985
984
987
992
990
989
986
985
988
987
989
1000
1025
1076
1142
1216
1279
1320
1340
1343
1336
1308
1249
1165
1065
991
967
982
991
986
979
977
979
980
979
970
965
966
965
967
964
963
959
956
960
960
962
958
957
956
959
963
964
961
961
961
963
967
966
966
960
961
967
966
969
969
966
968
970
972
970
970
971
971
974
977
979
976
976
980
984
985
984
986
985
987
992
996
997
998
997
1004
1007
1011
1013
1014
1017
1019
1025
1029
1030
1031
1036
1037
1045
1052
1051
1050
1055
1056
1061
1070
1070
1071
1068
1071
1073
1074
1074
1072
1068
1065
1067
1067
1062
1056
1049
1044
1040
1044
1040
1032
1027
1023
1020
1018
1015
1010
1006
1003
1003
1002
999
993
991
989
987
992
987
981
980
980
983
982
983
978
977
975
979
982
979
977
976
978
979
983
984
981
980
981
984
987
988
987
985
987
988
990
988
990
991
994
994
1000
996
995
995
998
1000
1003
1001
999
996
998
999
1002
1001
996
996
994
996
1001
997
996
992
994
994
995
993
989
985
986
988
990
987
984
983
980
987
987
981
979
977
979
982
982
980
977
974
975
975
979
977
974
971
977
977
977
977
973
969
975
974
975
975
975
971
970
970
973
970
972
970
969
971
973
973
971
968
969
971
974
971
971
969
969
970
972
972
971
967
970
970
970
972
966
964
969
969
974
971
970
969
968
969
972
970
968
967
966
969
973
973
969
969
969
968
971
972
971
970
969
972
975
973
971
970
973
974
978
977
976
974
975
977
981
982
979
980
983
987
995
998
998
998
1001
1009
1014
1018
1022
1029
1034
1034
1034
1030
1021
1017
1019
1018
1016
1013
1004
997
992
994
995
990
986
981
981
986
988
987
986
985
986
988
992
991
990
987
991
1000
1017
1045
1078
1131
1190
1240
1279
1301
1302
1295
1277
1241
1182
1100
1024
977
969
978
987
984
975
970
973
970
974
969
967
962
960
961
961
962
959
955
957
956
958
957
954
955
953
955
962
957
957
955
954
958
960
960
959
955
956
960
965
966
963
962
963
968
967
967
967
967
965
970
974
969
973
972
973
977
980
981
978
979
983
987
993
993
994
993
996
1002
1008
1009
1009
1010
1015
1018
1024
1025
1028
1027
1030
1035
1042
1043
1043
1045
1048
1053
1056
1059
1056
1055
1055
1059
1062
1058
1054
1053
1050
1050
1054
1048
1044
1038
1037
1036
1033
1031
1024
1016
1015
1015
1011
1010
1003
1000
997
996
995
990
986
981
978
981
980
979
976
970
972
971
975
972
968
965
968
968
967
969
967
964
967
970
973
975
971
968
968
970
974
973
973
971
972
976
975
981
976
975
978
980
984
982
982
980
982
982
984
988
986
984
983
988
987
990
989
985
988
989
992
990
986
984
985
986
986
986
983
979
981
983
984
981
980
976
975
975
979
977
974
972
971
974
977
975
974
969
969
971
970
971
969
965
967
970
969
970
966
966
965
966
969
967
964
962
964
965
967
967
964
963
964
964
966
966
963
960
961
962
967
962
963
960
960
963
964
965
962
960
961
960
965
964
959
957
957
958
959
964
960
958
958
960
962
962
958
954
955
958
963
964
958
953
959
960
963
963
961
957
956
958
962
959
962
957
956
959
966
965
961
961
963
966
967
966
963
963
964
967
972
973
972
972
974
979
983
988
988
988
989
997
1003
1008
1012
1015
1017
1018
1016
1014
1007
1002
1000
1002
1002
996
991
985
980
980
980
976
972
965
967
966
969
970
969
966
966
967
973
971
972
970
969
971
976
984
995
1016
1049
1094
1146
1192
1227
1248
1257
1262
1253
1226
1178
1115
1046
986
963
961
964
962
956
959
956
956
951
948
946
946
945
940
939
935
934
936
937
936
932
930
930
931
934
931
932
930
927
933
937
936
934
934
934
934
938
937
938
938
937
939
941
943
943
939
940
946
947
945
944
943
948
948
952
953
949
952
953
957
962
960
960
958
961
968
971
971
971
970
971
978
982
983
983
984
987
991
997
998
998
998
1000
1006
1013
1016
1016
1016
1018
1023
1029
1029
1032
1031
1033
1034
1037
1038
1036
1031
1033
1033
1038
1036
1033
1027
1027
1025
1024
1024
1016
1011
1007
1005
1006
1003
998
994
989
989
986
981
978
973
972
971
970
969
962
959
958
957
958
959
956
952
952
954
956
953
952
946
947
948
950
951
950
948
947
951
953
954
952
948
951
952
952
956
953
952
951
954
960
955
956
955
953
957
961
962
957
957
958
961
964
964
963
959
963
962
966
966
963
961
962
963
967
966
965
961
960
961
963
961
960
957
955
957
956
958
954
951
950
954
956
954
951
948
947
948
948
947
945
944
944
945
947
946
942
941
941
941
944
942
938
940
938
942
943
942
939
937
936
942
945
942
940
937
937
940
942
942
938
935
937
938
940
940
939
935
931
937
940
940
937
938
936
939
940
938
935
933
934
935
939
938
935
933
932
934
937
936
933
931
930
937
939
938
937
932
933
938
940
941
939
936
936
940
943
946
944
941
942
951
955
956
955
952
955
958
967
969
971
976
982
984
988
987
981
977
977
975
974
973
966
960
959
959
960
957
956
951
950
954
953
955
952
956
957
960
966
968
967
966
967
976
986
1004
1030
1065
1115
1168
1212
1240
1255
1255
1248
1227
1190
1129
1052
986
956
957
964
963
956
951
950
952
953
953
951
946
943
946
949
949
943
941
942
944
947
944
945
944
943
947
950
947
944
944
942
949
952
953
950
949
951
955
958
959
954
952
955
962
966
966
964
963
965
970
974
975
974
974
975
981
985
985
984
986
986
991
997
999
1000
998
1002
1006
1014
1015
1017
1018
1021
1024
1029
1029
1031
1030
1034
1041
1047
1048
1049
1050
1051
1054
1062
1065
1064
1063
1066
1069
1072
1071
1070
1065
1064
1067
1068
1067
1062
1055
1051
1050
1049
1046
1040
1034
1031
1030
1031
1026
1020
1012
1012
1010
1008
1005
1002
997
993
993
996
994
992
987
982
982
987
985
984
979
976
981
981
980
981
977
975
975
981
982
980
979
980
982
986
985
985
984
984
987
991
990
989
988
988
991
995
995
997
994
996
1000
1002
1001
1001
999
998
999
1003
1004
999
996
997
997
1001
999
998
995
995
995
999
997
995
991
989
989
994
992
989
986
987
987
987
986
987
982
981
983
985
982
978
977
979
979
978
980
975
973
974
976
976
977
971
969
967
970
974
973
974
969
971
970
974
975
972
968
966
971
970
967
967
967
967
967
970
971
968
966
966
968
971
972
969
969
969
970
973
970
968
965
969
975
977
979
978
974
978
983
986
988
988
992
993
998
1004
1006
1011
1011
1013
1017
1023
1022
1020
1015
1015
1013
1012
1005
996
989
988
988
986
985
977
972
970
975
978
978
976
973
974
978
984
983
981
977
978
979
992
1009
1037
1077
1130
1188
1231
1258
1267
1259
1252
1225
1182
1120
1045
989
971
980
987
982
975
971
970
965
962
963
958
956
952
954
952
955
948
947
946
947
948
948
946
943
943
944
948
949
947
943
942
944
949
949
947
945
941
946
950
952
950
948
948
950
955
955
952
953
950
956
960
960
957
957
958
962
969
968
970
969
970
975
981
982
983
983
980
989
991
997
998
999
1002
1006
1012
1015
1015
1016
1019
1022
1032
1032
1032
1033
1033
1036
1038
1040
1037
1033
1031
1034
1034
1031
1029
1023
1020
1019
1018
1016
1011
1003
1000
998
999
996
989
984
980
981
982
976
972
967
967
967
968
968
965
962
959
959
963
963
960
955
957
959
962
961
957
956
956
958
961
962
960
958
959
961
966
966
962
961
963
965
967
971
969
963
967
970
972
973
972
969
970
968
973
975
974
974
971
975
979
975
977
974
973
976
980
979
976
973
972
975
979
978
974
973
973
973
976
975
975
969
971
972
976
974
970
970
969
969
971
970
969
966
963
965
969
969
968
961
960
964
967
969
961
962
963
964
967
964
964
962
960
962
965
967
965
961
962
963
968
966
964
963
965
965
967
966
966
966
967
968
974
978
977
977
979
981
987
989
992
990
993
999
1007
1009
1010
1008
1011
1014
1014
1014
1013
1004
1000
1000
996
993
990
984
981
979
979
980
974
973
972
974
976
976
974
975
977
980
987
987
986
985
992
1014
1047
1088
1137
1178
1211
1233
1241
1237
1217
1185
1135
1074
1020
987
983
985
986
982
981
978
972
968
964
963
962
960
959
955
955
953
956
958
953
948
947
952
952
954
951
949
948
949
952
954
952
949
951
953
957
957
955
953
954
955
959
960
959
957
958
960
963
962
965
964
964
967
970
972
971
969
968
973
979
982
983
983
983
989
992
997
999
998
999
1006
1012
1011
1013
1013
1015
1018
1025
1025
1027
1028
1031
1032
1036
1037
1039
1033
1036
1034
1038
1035
1033
1025
1026
1027
1027
1023
1022
1014
1010
1010
1009
1004
1001
995
993
992
992
988
982
977
979
976
978
976
975
970
968
971
971
970
969
966
963
967
968
967
966
966
963
967
970
969
967
968
967
970
972
975
974
972
972
975
977
979
977
975
973
979
978
980
980
978
980
981
983
985
983
982
980
983
986
985
983
983
983
984
988
986
984
981
982
980
986
986
982
980
980
981
983
985
980
978
976
978
980
981
977
975
974
976
979
977
972
969
971
974
974
975
969
970
971
971
973
972
971
969
968
969
972
972
971
968
967
967
972
971
970
968
967
970
972
971
971
967
968
969
974
973
973
971
969
972
976
975
975
973
974
978
980
983
982
983
986
987
992
997
995
995
999
1004
1010
1013
1013
1015
1019
1022
1024
1026
1022
1016
1016
1017
1014
1011
1009
1002
998
996
994
992
990
989
987
988
991
991
989
988
989
990
995
995
995
995
999
1012
1039
1071
1113
1156
1195
1225
1238
1241
1235
1217
1190
1148
1096
1038
1002
992
992
995
992
987
980
974
972
972
969
969
967
963
961
959
962
961
958
955
953
956
957
957
957
953
950
954
956
957
952
951
954
956
957
955
957
953
953
956
958
959
957
957
956
961
963
964
963
963
964
967
969
970
969
968
972
976
977
982
981
977
980
981
987
991
993
992
990
999
1006
1007
1008
1008
1010
1015
1021
1021
1023
1021
1024
1028
1035
1035
1033
1032
1027
1033
1036
1036
1033
1029
1028
1031
1030
1028
1024
1019
1016
1018
1016
1013
1008
1000
998
997
998
994
991
985
984
984
987
985
979
975
974
976
975
976
973
969
970
974
972
976
975
970
970
974
979
977
975
974
972
978
978
979
978
980
977
984
985
986
985
983
984
987
991
991
990
989
989
990
992
995
991
991
988
991
998
993
994
991
992
993
994
995
991
985
986
990
991
990
984
985
985
986
990
992
988
987
982
988
988
989
986
983
981
984
984
985
986
978
977
978
984
984
979
978
978
981
984
983
979
975
976
978
979
980
976
975
975
978
978
978
975
977
974
976
977
979
977
975
976
976
979
979
976
973
974
978
980
981
980
979
980
982
984
984
983
976
977
983
984
987
987
983
983
986
990
991
993
992
997
1000
1004
1006
1007
1006
1009
1017
1024
1026
1026
1024
1025
1026
1030
1028
1021
1015
1013
1010
1010
1007
1003
997
995
995
997
996
995
992
992
994
998
1000
999
997
999
1002
1006
1009
1013
1029
1054
1091
1127
1169
1196
1213
1220
1223
1215
1196
1163
1116
1062
1022
1000
1002
1002
993
987
986
987
987
979
976
972
972
973
974
969
964
963
965
966
966
962
959
959
960
963
960
961
959
955
956
960
959
960
955
954
955
960
962
962
958
957
961
965
965
968
960
965
966
969
967
966
965
968
971
975
976
977
976
976
978
983
984
983
980
982
985
992
996
994
993
994
1000
1003
1007
1006
1006
1007
1011
1016
1020
1020
1020
1020
1024
1027
1029
1029
1030
1028
1032
1035
1034
1033
1031
1029
1032
1034
1034
1030
1024
1024
1022
1021
1022
1018
1011
1009
1010
1012
1008
1002
998
996
993
995
994
989
986
983
984
984
985
979
978
976
978
979
979
977
974
973
974
978
980
977
974
974
977
980
979
977
977
977
981
984
984
982
979
983
983
986
988
988
985
985
988
992
992
991
989
986
992
994
993
991
989
990
990
995
995
993
989
990
991
993
992
991
988
988
988
993
989
989
987
984
986
988
989
986
981
980
984
983
985
982
981
979
979
982
983
979
978
976
978
979
981
978
975
975
976
979
979
975
973
970
974
974
977
975
974
971
977
978
977
978
973
969
971
974
975
974
973
973
973
975
975
975
973
973
975
978
978
975
969
972
974
978
977
978
973
971
974
976
978
975
974
974
977
980
978
978
975
974
979
980
981
979
979
977
980
985
986
988
985
986
990
994
993
996
994
999
1002
1009
1011
1013
1013
1018
1023
1029
1031
1030
1029
1026
1030
1028
1027
1020
1014
1009
1008
1009
1006
1001
996
993
995
996
997
995
991
995
995
999
1002
1000
995
1000
1002
1006
1006
1009
1015
1034
1066
1104
1146
1181
1205
1220
1228
1229
1219
1196
1160
1110
1062
1023
1004
1002
1000
996
994
993
993
990
984
982
981
981
977
973
968
966
968
970
971
970
966
963
966
967
970
966
963
965
964
970
968
968
965
965
970
967
970
969
965
965
967
972
972
969
969
967
970
973
977
974
969
972
975
974
981
981
980
979
985
986
988
988
986
986
991
995
998
998
997
999
1001
1004
1009
1011
1007
1009
1013
1019
1020
1020
1019
1022
1027
1030
1033
1034
1033
1031
1035
1041
1044
1043
1041
1042
1043
1047
1046
1043
1041
1041
1041
1039
1043
1040
1036
1033
1031
1034
1034
1028
1024
1021
1019
1021
1019
1011
1006
1004
1005
1007
1004
1000
998
994
994
994
995
994
990
989
987
992
990
987
983
984
986
986
986
986
982
984
988
988
988
988
986
985
986
992
993
994
992
991
995
992
994
992
990
993
996
998
997
995
995
999
1000
1004
1004
1006
1002
1002
1004
1007
1007
1006
1003
1002
1005
1008
1007
1006
1003
1001
1003
1006
1006
1005
1001
1000
1001
1004
1002
998
995
995
995
999
998
997
994
993
994
996
997
994
990
988
990
994
992
989
986
983
988
990
989
990
985
983
983
985
989
988
982
982
984
988
988
985
982
982
982
983
986
985
981
977
980
983
983
985
978
978
978
981
980
982
979
978
980
982
981
981
978
979
979
982
983
983
976
976
978
981
981
979
979
980
983
987
988
986
985
987
985
988
993
993
991
995
998
1003
1004
1006
1002
1009
1012
1020
1024
1026
1025
1026
1029
1031
1030
1029
1025
1021
1018
1016
1013
1010
1005
1000
998
997
997
993
990
989
993
995
996
997
994
996
997
1002
1004
1003
1000
1003
1012
1028
1049
1073
1109
1146
1184
1208
1218
1220
1212
1200
1179
1140
1093
1041
1003
995
999
1001
998
992
986
985
983
983
980
978
973
968
967
971
969
968
963
961
962
965
965
963
961
958
962
965
964
963
958
956
961
963
964
961
962
961
963
967
966
967
962
962
967
970
967
970
967
968
972
976
977
976
974
974
977
980
983
984
982
984
986
991
990
990
989
990
996
999
1005
1006
1004
1006
1009
1015
1019
1016
1016
1022
1026
1032
1032
1035
1035
1035
1037
1042
1045
1044
1043
1043
1046
1048
1050
1047
1044
1041
1041
1043
1043
1037
1034
1031
1032
1032
1030
1022
1019
1017
1015
1017
1013
1009
1003
1001
999
1000
998
993
987
985
986
987
988
984
982
979
979
980
979
978
976
974
975
975
979
975
973
971
973
975
977
972
974
972
973
977
980
979
978
977
976
981
982
980
980
978
981
984
984
985
984
982
986
988
989
988
986
987
989
988
991
991
987
985
989
991
992
989
985
987
989
991
990
987
983
983
985
987
990
986
983
983
984
986
986
984
982
982
982
983
981
983
979
980
979
981
981
979
977
976
974
978
979
976
973
971
974
977
977
975
972
970
971
974
975
973
971
968
970
975
973
975
971
968
969
973
976
975
971
971
972
974
975
975
973
971
974
975
977
975
973
970
975
977
976
976
973
973
975
979
983
983
978
977
981
986
987
989
989
990
995
999
1002
1000
1006
1003
1010
1014
1019
1017
1016
1019
1024
1025
1023
1019
1011
1006
1007
1006
999
1000
995
995
993
993
993
992
989
988
990
993
995
991
993
993
999
1003
1006
1008
1006
1017
1034
1062
1097
1135
1165
1188
1203
1208
1205
1190
1161
1122
1075
1028
1000
995
991
992
988
986
987
985
981
979
975
975
975
973
968
968
967
971
967
969
965
964
964
964
968
965
964
961
962
963
965
966
963
964
964
967
967
967
965
966
968
971
970
971
969
969
971
974
977
976
975
977
979
982
986
984
983
984
989
989
992
991
991
993
998
1002
1004
1004
1001
1002
1008
1014
1014
1019
1018
1020
1025
1027
1031
1032
1031
1032
1040
1044
1047
1047
1048
1049
1053
1056
1057
1057
1055
1054
1057
1057
1058
1054
1051
1046
1045
1045
1045
1041
1036
1035
1033
1031
1029
1028
1020
1019
1019
1019
1016
1012
1007
1004
1002
1002
1004
999
995
993
994
996
995
993
991
988
987
990
989
987
984
983
985
989
992
989
986
983
984
990
991
992
988
990
989
993
994
993
991
994
995
995
998
998
996
996
998
1002
1001
1003
998
1001
1002
1007
1008
1008
1001
1003
1006
1005
1008
1004
1003
1003
1004
1006
1007
1004
1000
1000
1002
1005
1004
1000
998
1000
999
1003
1003
1000
998
997
997
1000
999
999
994
992
994
995
996
995
992
988
990
992
995
991
989
987
987
989
991
991
987
985
989
989
989
988
984
985
984
987
990
989
986
982
986
988
987
987
984
983
982
986
988
982
983
984
984
986
990
984
982
983
984
987
987
987
987
986
986
989
988
988
986
987
985
988
989
992
988
990
993
997
998
997
996
997
1002
1008
1010
1010
1011
1009
1016
1023
1030
1030
1029
1030
1032
1034
1033
1030
1028
1024
1022
1022
1020
1014
1009
1005
1004
1005
1006
1004
1003
1001
1004
1008
1006
1008
1006
1007
1010
1014
1017
1016
1014
1020
1042
1067
1099
1133
1165
1188
1206
1213
1212
1204
1184
1151
1111
1067
1030
1013
1009
1007
1009
1007
1002
1001
993
989
988
985
984
984
978
972
974
975
976
974
974
971
972
975
976
972
968
968
969
971
975
972
968
968
968
972
975
975
971
971
970
976
975
974
974
971
979
981
981
982
978
977
982
981
986
987
987
985
989
990
991
995
992
993
994
1001
1000
1005
1004
1005
1008
1015
1017
1018
1018
1020
1024
1027
1032
1033
1033
1029
1037
1042
1044
1044
1045
1046
1050
1053
1053
1054
1053
1049
1052
1052
1053
1050
1046
1042
1040
1041
1038
1037
1030
1027
1026
1027
1025
1022
1015
1013
1010
1011
1009
1006
1001
998
998
999
997
996
993
988
990
992
992
988
984
984
984
986
984
986
982
981
982
987
988
984
981
980
982
985
987
984
979
983
986
988
988
989
988
986
989
990
994
993
991
991
993
994
997
995
992
991
995
997
995
995
991
994
995
997
998
997
992
992
993
998
997
996
993
988
992
993
989
990
989
986
989
990
991
988
984
984
983
988
987
986
982
982
982
987
987
986
982
982
979
983
984
982
979
978
981
981
983
980
977
974
976
977
981
980
978
977
978
978
981
977
975
977
978
981
980
983
979
978
977
981
983
981
974
976
978
979
982
981
978
977
979
978
981
981
978
977
979
980
983
982
979
980
980
981
984
980
978
978
981
984
985
984
984
983
984
988
988
990
987
988
990
996
1000
997
1000
1000
1003
1009
1012
1011
1015
1017
1024
1031
1034
1031
1028
1026
1024
1025
1023
1021
1014
1009
1008
1007
1005
998
993
990
991
995
993
994
994
995
995
998
1001
999
1000
1001
1003
1007
1017
1032
1052
1085
1132
1175
1203
1220
1221
1219
1209
1189
1148
1090
1034
1001
994
998
1006
996
993
987
987
987
986
980
974
972
970
971
970
967
965
965
963
967
966
962
960
959
963
966
964
966
962
962
961
965
969
966
963
961
963
967
971
967
966
966
968
971
973
972
969
970
971
979
980
980
977
977
985
986
989
988
990
988
994
998
1002
1002
1002
1003
1006
1010
1015
1016
1015
1018
1023
1025
1026
1032
1032
1033
1037
1041
1042
1045
1040
1043
1045
1047
1046
1049
1042
1042
1045
1048
1046
1041
1034
1031
1033
1033
1030
1027
1022
1016
1015
1014
1012
1007
1004
999
998
997
997
990
983
982
981
984
984
982
978
976
976
975
974
973
973
970
970
972
974
973
969
966
970
972
973
973
971
968
971
973
976
975
973
968
974
976
975
977
976
972
975
978
981
980
981
978
981
984
986
984
981
980
980
983
985
983
979
979
980
982
980
982
977
978
978
980
981
977
977
974
975
978
978
975
974
972
972
975
975
975
969
968
969
972
972
970
966
964
967
968
969
967
963
962
964
964
968
966
962
961
963
963
963
963
960
961
960
963
965
964
958
961
961
963
964
964
962
960
959
961
962
963
959
959
960
959
961
961
956
957
959
960
963
961
959
959
959
959
963
959
956
954
961
961
961
961
959
958
961
963
965
961
960
958
959
964
963
962
962
960
962
964
966
965
965
964
964
966
969
968
967
967
966
973
977
977
976
974
977
982
984
986
986
987
992
997
1004
1007
1007
1004
1003
1002
1002
1001
997
992
994
992
993
990
985
981
981
981
978
980
976
979
978
984
986
986
983
985
989
990
994
994
995
1001
1020
1048
1087
1125
1160
1189
1205
1208
1203
1184
1149
1097
1033
995
979
986
986
981
977
977
977
973
967
962
960
965
963
962
956
954
956
958
958
955
951
950
952
953
958
954
951
951
952
955
958
956
952
953
956
958
958
956
955
953
958
961
963
961
961
962
964
968
970
970
967
969
967
973
974
977
977
975
979
983
986
986
988
986
990
997
1001
1000
999
1002
1008
1012
1015
1017
1016
1018
1023
1027
1034
1034
1035
1036
1039
1045
1045
1044
1045
1045
1045
1051
1048
1047
1045
1040
1039
1042
1041
1040
1033
1030
1024
1024
1023
1022
1014
1009
1008
1007
1005
1002
996
991
993
989
991
988
982
979
979
979
982
978
975
971
972
975
974
973
970
967
969
969
972
973
971
970
970
972
973
972
972
972
972
972
979
979
976
975
977
981
983
982
979
981
985
987
988
987
984
985
987
989
990
990
988
986
985
988
990
990
986
985
986
989
990
987
984
980
983
983
986
984
979
979
978
977
981
979
976
974
975
976
978
976
973
971
972
974
976
974
971
971
970
975
974
971
971
968
970
971
971
970
969
965
968
970
971
970
966
964
965
969
971
968
966
964
963
966
969
965
965
964
965
968
968
966
965
962
965
966
968
966
965
965
966
964
966
968
962
964
966
966
965
967
965
963
962
966
967
967
963
963
963
968
968
968
964
962
961
963
969
967
964
963
965
969
970
969
966
965
967
970
971
972
966
968
968
970
972
973
970
968
970
972
974
974
971
974
976
981
982
983
982
983
987
992
994
995
992
994
999
1005
1012
1014
1009
1011
1007
1008
1005
1005
1001
998
999
999
996
993
987
983
983
983
987
986
983
983
984
987
989
989
987
988
991
994
997
998
997
1001
1015
1036
1067
1101
1136
1168
1189
1202
1200
1194
1173
1140
1096
1047
1010
993
994
995
990
989
987
981
977
973
971
967
972
967
960
960
958
959
961
960
955
954
955
959
959
957
954
953
953
955
957
956
951
952
954
956
956
957
955
954
956
960
962
962
960
956
959
963
966
963
962
963
966
970
973
972
973
971
974
976
982
979
981
981
981
987
991
994
991
993
996
1002
1007
1008
1006
1007
1012
1016
1020
1023
1020
1022
1025
1031
1032
1037
1035
1032
1034
1038
1043
1042
1038
1038
1038
1040
1040
1039
1035
1033
1033
1034
1031
1026
1025
1016
1017
1016
1016
1009
1005
1000
1000
1001
996
995
988
986
986
984
986
980
975
972
975
973
975
970
967
970
971
970
972
969
967
964
965
967
968
969
964
963
964
967
970
969
966
967
969
972
974
972
970
968
970
974
974
970
969
971
971
975
976
975
977
973
974
977
981
980
976
975
979
979
979
980
978
976
976
982
984
981
979
976
977
980
980
980
977
973
973
976
977
977
972
970
971
972
973
972
971
968
970
972
973
971
966
965
966
968
970
966
963
963
964
967
968
966
964
962
959
964
967
966
962
961
962
966
964
963
961
959
961
962
963
961
959
958
959
959
962
961
956
956
957
957
961
962
956
954
957
960
960
958
956
953
955
960
959
959
955
950
953
954
961
958
957
951
954
955
958
955
954
951
951
956
956
954
952
950
950
952
954
952
950
947
950
953
953
951
947
945
946
951
947
948
946
943
945
945
946
942
941
941
938
939
940
940
936
936
937
940
941
940
936
936
939
940
941
941
939
938
939
943
943
941
938
939
941
947
950
950
948
947
950
957
962
959
957
960
963
969
974
980
977
979
980
981
979
976
973
972
973
975
971
972
965
961
963
963
966
965
962
960
966
969
970
970
968
972
971
977
981
983
982
982
987
997
1012
1029
1055
1090
1126
1159
1183
1192
1197
1190
1182
1161
1125
1079
1028
996
985
988
991
986
979
976
975
976
977
969
970
966
968
969
969
964
963
961
963
966
966
965
960
960
962
965
967
966
963
963
965
968
971
968
967
963
969
972
972
972
971
972
972
977
979
978
976
977
979
981
985
985
984
982
987
993
994
995
994
992
998
1003
1004
1004
1003
1003
1007
1011
1014
1015
1016
1018
1018
1025
1028
1030
1031
1028
1034
1042
1044
1047
1048
1048
1049
1054
1060
1061
1061
1061
1062
1064
1065
1067
1066
1061
1064
1064
1064
1066
1058
1051
1051
1052
1050
1049
1043
1038
1037
1032
1036
1030
1026
1023
1019
1020
1018
1013
1011
1007
1007
1006
1005
1004
998
998
998
996
994
995
992
987
987
994
993
990
987
985
985
991
990
988
988
985
984
989
991
991
988
986
988
992
992
992
993
991
995
997
998
998
997
996
996
1001
1003
1000
999
996
999
1002
1004
1003
1003
999
1002
1006
1007
1008
1003
1000
1001
1005
1006
1007
1002
1002
1001
1003
1002
1002
999
997
996
998
999
998
996
993
994
995
995
993
988
987
989
990
992
990
988
984
984
988
990
989
987
985
986
985
990
988
985
981
981
981
984
985
979
979
981
982
984
984
977
974
976
980
982
980
978
977
978
980
982
980
976
977
976
978
980
980
977
975
977
980
980
979
975
974
977
979
979
977
975
974
975
979
981
979
977
975
975
980
981
978
976
974
977
978
982
980
977
977
978
981
983
984
982
979
979
981
983
982
981
985
987
991
994
993
994
993
997
1002
1006
1006
1004
1005
1009
1013
1014
1013
1008
1006
1004
1005
1005
1003
998
993
993
994
995
990
986
986
987
988
991
990
986
982
985
987
988
988
990
990
994
995
997
1001
1009
1023
1048
1083
1123
1158
1180
1192
1197
1198
1191
1175
1144
1101
1055
1015
1001
999
998
994
990
987
985
982
978
971
970
969
969
967
962
962
958
961
961
959
954
953
958
959
960
956
952
952
953
956
956
954
955
954
953
954
956
956
955
955
952
954
960
957
956
952
955
957
960
961
961
961
960
960
966
964
964
964
966
971
974
972
971
972
973
978
981
981
981
982
986
988
993
993
992
991
999
1005
1010
1008
1006
1008
1011
1015
1020
1020
1021
1019
1022
1024
1027
1027
1025
1023
1024
1022
1024
1022
1020
1016
1014
1014
1015
1010
1004
1000
998
997
997
991
988
981
979
982
981
976
969
969
962
967
965
963
960
956
956
955
958
958
952
951
949
954
952
951
947
944
949
948
951
948
946
946
946
948
950
950
948
946
947
950
949
949
947
945
946
949
952
951
950
952
952
952
956
956
955
954
957
960
962
960
960
960
956
962
964
962
962
960
964
965
966
965
962
963
964
966
967
969
967
965
967
966
970
970
968
964
966
966
968
969
967
965
966
969
970
970
965
964
967
967
970
969
965
962
966
967
969
968
967
966
964
968
970
970
967
968
966
969
969
970
967
965
963
968
967
969
967
966
967
966
970
970
963
961
963
966
970
966
963
961
964
964
968
965
965
964
967
971
968
967
965
965
965
969
972
970
968
967
967
971
974
971
970
967
968
970
974
974
971
969
973
975
978
980
979
978
978
984
987
990
989
987
992
997
1001
1000
999
1004
1005
1009
1011
1009
1004
1001
1002
1004
1002
1000
994
991
991
990
992
989
983
979
983
986
988
986
983
985
985
987
994
992
991
989
989
997
1003
1015
1030
1055
1094
1134
1169
1192
1200
1202
1195
1183
1159
1117
1065
1015
988
986
990
991
981
978
976
978
975
971
970
966
965
967
967
965
962
960
960
958
962
960
956
952
953
956
959
957
955
954
954
955
960
958
956
954
958
958
958
960
958
955
956
962
963
964
961
958
959
965
968
967
965
967
969
971
975
977
972
972
974
977
984
984
983
983
986
989
992
992
994
993
998
1003
1006
1006
1007
1003
1009
1012
1014
1020
1019
1019
1021
1024
1029
1028
1026
1027
1028
1030
1030
1031
1027
1022
1021
1023
1026
1021
1019
1013
1013
1011
1014
1009
1004
998
999
993
995
994
990
986
985
986
986
982
980
973
974
978
977
977
971
969
966
973
974
971
968
966
965
968
971
973
968
967
969
970
970
969
969
968
969
975
975
975
972
976
976
978
979
980
979
977
976
979
985
984
982
977
983
984
985
986
982
983
985
988
992
987
986
985
985
984
986
983
978
977
981
984
987
985
981
980
981
982
983
984
982
980
979
980
982
978
975
974
974
977
979
973
973
973
974
976
981
978
974
969
968
972
977
974
972
967
971
971
976
971
973
972
968
972
975
975
970
968
971
975
976
971
971
970
969
973
974
972
972
970
970
973
978
975
975
973
973
975
979
978
977
974
973
979
982
981
978
975
979
983
983
984
982
982
984
990
993
993
991
993
994
998
1004
1002
1001
1002
1008
1017
1022
1021
1018
1011
1008
1013
1014
1010
1006
1002
1000
997
1001
996
991
989
988
991
994
993
991
992
993
995
999
998
1000
998
999
1002
1004
1011
1019
1036
1064
1102
1146
1178
1199
1209
1210
1205
1192
1164
1122
1074
1028
1006
1005
1003
1000
994
990
992
994
987
984
981
978
977
977
974
969
969
971
970
969
968
966
965
966
966
968
969
965
962
962
965
968
968
965
964
965
967
970
967
966
966
969
969
971
973
971
970
971
972
977
975
975
974
975
981
984
983
982
982
985
988
993
994
992
991
994
998
1003
1000
1001
1002
1006
1010
1014
1014
1014
1014
1016
1023
1026
1025
1025
1023
1026
1029
1032
1033
1029
1027
1028
1028
1031
1029
1025
1024
1022
1023
1022
1019
1016
1010
1007
1007
1009
1005
1000
996
995
995
995
992
987
985
984
987
988
985
979
978
976
979
978
977
975
972
973
973
976
975
973
974
969
973
974
975
976
972
972
980
980
979
975
976
978
981
984
983
982
981
982
984
984
987
986
983
986
989
990
990
987
986
987
989
990
991
988
987
988
990
993
990
988
985
986
989
991
988
986
985
982
986
987
985
983
982
982
984
986
983
979
979
978
983
986
984
979
978
978
978
982
981
976
974
975
977
982
977
975
973
974
974
980
978
974
972
973
977
979
974
973
970
975
976
977
976
972
974
973
973
979
977
973
972
975
977
979
979
975
973
976
977
980
980
976
977
978
983
985
984
983
984
987
992
992
995
995
995
996
1002
1008
1009
1012
1015
1015
1019
1021
1018
1014
1008
1004
1005
1005
1001
994
989
990
989
993
989
984
983
985
985
985
990
988
987
989
992
995
995
996
996
1008
1031
1062
1098
1134
1165
1185
1195
1195
1185
1161
1126
1080
1038
1008
995
991
988
983
984
985
981
976
970
970
969
969
965
960
958
958
959
959
960
954
951
953
954
957
954
954
951
950
952
954
956
953
952
952
955
959
958
956
954
956
957
960
959
956
957
956
960
964
964
964
960
963
967
970
971
969
969
972
977
980
982
976
975
979
983
987
985
986
983
988
993
998
999
999
998
1002
1006
1009
1011
1012
1011
1013
1013
1016
1018
1013
1014
1017
1017
1019
1018
1015
1013
1011
1011
1013
1010
1005
1000
1000
998
1001
996
993
987
987
986
988
984
981
978
975
978
978
974
972
968
968
969
971
970
968
966
962
963
970
968
966
965
966
967
971
970
967
965
966
970
972
972
969
967
970
970
973
976
974
970
972
974
979
977
976
974
975
979
981
978
977
976
979
976
981
980
977
975
976
978
979
981
975
974
976
978
980
976
974
970
971
976
975
975
972
972
972
973
975
972
970
969
969
971
971
970
967
966
969
969
969
968
963
961
961
962
967
967
965
963
963
967
968
964
964
962
964
966
969
969
965
960
965
967
970
964
964
961
965
964
968
968
966
964
964
968
967
966
965
958
963
965
967
970
967
964
966
971
972
971
971
969
971
973
980
981
981
981
982
985
992
990
990
994
998
1006
1011
1011
1012
1009
1011
1013
1015
1010
1004
1001
997
997
995
990
984
981
983
982
987
985
982
978
981
986
989
988
988
985
987
988
990
992
996
1010
1034
1065
1106
1144
1174
1188
1196
1196
1189
1165
1129
1081
1033
999
991
991
989
982
979
980
981
978
972
969
967
966
969
965
959
958
958
957
958
952
954
951
954
953
958
956
952
951
953
955
954
954
951
950
947
954
957
956
953
949
951
952
960
957
957
955
957
961
960
963
963
960
960
965
967
968
967
965
966
969
974
972
971
970
973
977
980
983
982
981
984
984
989
990
989
990
992
995
1000
999
1000
1000
1001
1002
1009
1011
1009
1008
1010
1013
1014
1017
1015
1014
1014
1018
1019
1017
1013
1013
1011
1011
1010
1009
1006
1002
998
1001
1003
999
996
990
991
988
990
989
987
982
984
985
984
981
979
978
977
979
981
976
977
973
969
975
976
975
971
970
973
976
978
976
975
975
979
979
982
978
977
975
979
982
984
981
982
979
983
987
990
989
987
983
985
989
991
987
987
985
984
990
994
994
991
987
990
992
994
992
992
990
989
995
998
996
994
988
989
992
994
992
991
991
991
990
994
988
991
985
985
990
992
991
987
987
986
989
990
987
986
989
987
987
993
990
988
987
987
990
992
989
983
984
987
989
992
990
987
985
985
986
988
989
988
987
989
987
995
993
993
988
988
992
996
996
993
991
992
994
998
998
996
994
993
996
1002
1001
1000
1000
998
1003
1008
1010
1009
1005
1011
1017
1020
1021
1022
1026
1031
1036
1043
1040
1040
1039
1039
1040
1044
1040
1033
1028
1026
1024
1023
1021
1014
1015
1010
1011
1011
1010
1006
1004
1007
1009
1012
1014
1010
1010
1009
1012
1016
1015
1015
1017
1025
1047
1073
1110
1144
1180
1209
1227
1238
1238
1229
1209
1181
1139
1084
1035
1001
993
998
1002
1003
999
994
992
991
991
993
988
985
980
978
978
977
979
977
974
973
973
976
976
973
972
971
972
978
975
972
971
972
973
975
977
974
972
973
976
978
979
976
971
973
978
979
980
979
976
978
984
987
985
984
982
985
987
991
992
990
988
991
993
999
997
996
998
998
1003
1007
1008
1004
1006
1009
1013
1017
1018
1019
1018
1019
1022
1028
1028
1030
1028
1034
1035
1039
1037
1035
1034
1038
1038
1040
1042
1036
1035
1036
1034
1036
1035
1032
1028
1025
1027
1026
1021
1020
1016
1014
1013
1017
1012
1011
1003
1004
1005
1007
1004
1000
998
999
999
1001
998
993
991
992
998
996
994
991
990
993
996
997
995
994
992
991
994
996
995
995
996
996
1000
1003
1000
1000
1000
1000
1004
1005
1008
1007
1002
1008
1008
1012
1010
1011
1010
1010
1010
1014
1014
1011
1011
1012
1012
1017
1014
1012
1009
1011
1014
1016
1013
1012
1009
1011
1011
1014
1012
1007
1007
1005
1008
1009
1009
1005
1003
1003
1007
1005
1004
1002
1000
999
1003
1005
1003
1000
999
1001
1003
1006
1003
1003
999
1000
1001
1002
1001
997
996
995
997
999
1001
999
995
994
998
1001
1002
1000
999
996
998
1001
1003
996
996
1000
1003
1004
1003
1003
1001
1003
1005
1010
1010
1010
1010
1014
1017
1021
1023
1021
1021
1026
1029
1036
1039
1041
1039
1043
1044
1044
1043
1041
1040
1036
1033
1035
1031
1022
1017
1019
1019
1015
1013
1006
1003
1006
1005
1007
1010
1005
1003
1003
1009
1016
1016
1012
1011
1011
1010
1016
1018
1027
1043
1070
1108
1151
1192
1218
1238
1249
1253
1251
1239
1213
1176
1131
1083
1039
1015
1012
1008
1010
1007
1010
1007
1003
999
995
995
995
990
987
984
981
983
987
984
982
977
979
979
983
982
979
978
979
979
980
980
978
975
977
979
981
983
979
978
980
981
983
982
981
978
975
981
985
986
983
980
983
985
989
991
987
985
988
991
995
998
995
991
994
998
1003
1002
1001
1001
1004
1006
1012
1012
1012
1009
1014
1018
1020
1021
1022
1021
1024
1028
1030
1030
1029
1028
1029
1033
1037
1034
1034
1032
1033
1036
1037
1036
1032
1029
1027
1027
1026
1026
1020
1019
1017
1019
1018
1013
1011
1006
1002
1005
1005
1002
999
998
998
998
1000
997
993
993
991
994
996
993
991
994
992
993
998
995
995
992
992
994
999
1000
994
992
994
1000
1002
1000
1000
997
1000
998
1001
1003
1003
1000
1000
998
1003
1003
1004
1004
1005
1007
1009
1011
1008
1008
1003
1009
1011
1010
1006
1004
1006
1012
1013
1014
1011
1008
1007
1011
1009
1011
1009
1004
1007
1007
1012
1008
1004
1005
1003
1004
1005
1005
1005
1001
1004
1004
1007
1007
1001
998
999
999
1004
1003
999
998
998
1002
1004
1003
1002
998
997
1000
1002
1000
1000
996
997
1000
1001
999
999
997
999
998
1002
1002
1000
1000
1001
1003
1006
1006
1001
997
1001
1004
1008
1006
1008
1009
1011
1014
1020
1021
1020
1023
1021
1029
1035
1041
1040
1042
1043
1047
1050
1049
1045
1039
1041
1039
1037
1032
1023
1023
1020
1020
1020
1017
1015
1010
1012
1015
1019
1017
1015
1010
1013
1017
1021
1021
1021
1020
1019
1022
1032
1044
1062
1093
1134
1176
1213
1233
1238
1239
1239
1228
1207
1168
1115
1060
1032
1028
1032
1032
1027
1022
1020
1021
1023
1019
1017
1009
1007
1007
1008
1001
1002
997
997
997
997
998
993
994
993
994
994
994
990
989
990
995
996
994
992
990
992
991
996
991
993
989
989
994
1000
998
997
993
992
996
1001
1001
999
998
999
1003
1004
1005
1005
1005
1008
1012
1014
1014
1011
1008
1013
1014
1019
1019
1019
1017
1020
1023
1025
1028
1024
1022
1027
1032
1036
1037
1037
1036
1037
1041
1044
1044
1043
1043
1041
1047
1050
1049
1049
1044
1043
1044
1048
1047
1045
1042
1038
1040
1044
1042
1036
1034
1034
1033
1034
1032
1028
1025
1021
1024
1027
1026
1022
1018
1019
1019
1022
1021
1019
1016
1019
1023
1023
1019
1016
1014
1016
1019
1022
1020
1018
1017
1018
1021
1023
1026
1023
1021
1019
1023
1027
1025
1023
1022
1022
1026
1029
1029
1025
1019
1023
1026
1030
1028
1028
1022
1022
1026
1029
1031
1029
1023
1027
1028
1033
1031
1029
1025
1024
1023
1029
1028
1027
1025
1023
1025
1028
1027
1024
1022
1023
1025
1027
1024
1021
1020
1022
1023
1021
1024
1020
1019
1017
1019
1022
1021
1020
1016
1016
1018
1021
1020
1018
1015
1017
1019
1022
1021
1021
1017
1017
1020
1022
1022
1023
1019
1019
1021
1026
1023
1023
1021
1022
1026
1032
1032
1033
1032
1035
1039
1045
1047
1046
1046
1055
1061
1066
1066
1064
1062
1061
1065
1062
1058
1051
1046
1042
1040
1038
1035
1027
1022
1023
1021
1026
1022
1019
1014
1019
1019
1024
1023
1023
1019
1021
1023
1025
1026
1027
1034
1046
1071
1102
1137
1173
1199
1215
1224
1223
1207
1180
1141
1097
1055
1030
1016
1012
1011
1010
1010
1007
1006
1002
998
995
994
997
995
988
984
983
985
989
986
984
983
980
984
985
981
982
978
980
982
985
983
982
980
979
982
986
983
981
978
980
984
987
987
985
985
987
990
992
993
994
991
992
998
1002
1002
1000
998
1001
1005
1007
1010
1006
1005
1005
1009
1015
1014
1014
1013
1014
1020
1024
1023
1025
1021
1023
1026
1031
1029
1028
1027
1030
1035
1038
1036
1037
1031
1033
1034
1037
1039
1035
1033
1034
1035
1036
1036
1035
1030
1031
1027
1028
1027
1023
1019
1022
1023
1026
1021
1016
1012
1012
1009
1018
1015
1013
1011
1011
1010
1015
1014
1011
1010
1010
1012
1016
1015
1010
1011
1010
1014
1019
1016
1015
1014
1015
1018
1019
1020
1018
1018
1020
1021
1022
1023
1021
1019
1019
1023
1026
1027
1025
1024
1025
1027
1027
1027
1021
1022
1022
1024
1027
1026
1022
1021
1019
1022
1024
1023
1018
1016
1015
1018
1020
1017
1016
1013
1013
1015
1015
1016
1009
1008
1009
1011
1014
1013
1010
1007
1006
1009
1013
1011
1008
1005
1007
1007
1009
1010
1010
1007
1007
1010
1014
1014
1015
1012
1012
1013
1017
1016
1014
1012
1017
1024
1029
1027
1031
1034
1039
1043
1047
1047
1045
1045
1046
1045
1045
1041
1034
1026
1024
1022
1021
1019
1012
1009
1009
1011
1014
1014
1010
1005
1008
1012
1013
1017
1016
1010
1016
1019
1022
1032
1048
1075
1113
1160
1197
1218
1224
1222
1211
1194
1163
1111
1056
1016
1007
1010
1015
1011
1004
998
997
998
997
994
991
984
986
984
988
985
982
980
980
978
982
982
981
977
977
979
981
981
979
977
976
979
980
982
978
977
974
979
985
985
982
982
983
986
989
990
988
987
989
993
995
996
995
992
996
1000
1005
1002
1000
1003
1005
1007
1011
1012
1012
1012
1010
1014
1020
1017
1018
1020
1020
1023
1028
1030
1030
1026
1031
1035
1038
1040
1036
1034
1037
1038
1040
1038
1037
1035
1031
1035
1037
1036
1029
1026
1024
1026
1027
1024
1022
1019
1018
1018
1018
1017
1012
1006
1006
1005
1008
1006
1001
998
995
999
999
999
995
991
991
994
998
997
993
990
992
996
998
999
996
995
996
999
1002
1001
999
998
999
1002
1002
1002
1003
999
996
1002
1007
1006
1005
1004
1001
1005
1009
1007
1005
1006
1004
1005
1010
1010
1005
1004
1006
1008
1009
1009
1005
1005
1004
1006
1009
1006
1005
1002
999
1002
1006
1006
1001
998
999
1001
998
999
994
994
994
995
999
997
994
991
990
992
998
997
994
989
989
991
995
996
993
991
995
996
1002
1001
998
997
1000
1004
1006
1010
1010
1009
1012
1016
1023
1024
1029
1028
1029
1033
1036
1033
1032
1029
1026
1025
1021
1014
1011
1006
1001
1001
1002
999
995
991
994
995
996
993
994
991
994
999
1001
1000
998
994
995
997
1005
1015
1034
1064
1107
1152
1191
1212
1221
1217
1207
1185
1148
1091
1036
1001
995
996
998
998
990
986
987
984
983
979
974
970
970
971
973
972
966
966
965
968
970
969
966
961
964
966
968
969
962
965
965
968
970
968
966
967
966
971
973
973
971
968
972
976
977
977
980
976
976
980
983
984
982
980
983
989
990
992
992
989
992
997
1000
1001
999
998
1002
1006
1009
1010
1011
1010
1012
1019
1020
1023
1020
1020
1020
1023
1029
1028
1025
1024
1025
1024
1030
1030
1025
1021
1018
1018
1023
1019
1021
1014
1013
1012
1014
1007
1005
1001
1001
1001
1001
997
994
991
991
990
993
990
986
983
984
986
988
984
982
980
982
983
986
988
987
984
986
989
991
989
988
988
983
988
992
992
993
990
989
993
999
995
995
993
994
998
1001
1001
1001
998
998
1000
1006
1008
1001
1002
1002
1005
1008
1009
1004
1001
1002
1004
1005
1002
998
999
997
1001
1004
1001
999
1000
1001
1001
1005
1002
1000
997
996
1001
1003
1001
999
995
994
994
1001
998
993
992
993
993
995
996
993
992
992
995
995
997
992
991
993
994
996
995
994
993
995
996
999
998
995
994
994
999
1001
1002
1000
999
1002
1007
1013
1013
1013
1012
1016
1020
1029
1030
1032
1035
1035
1039
1042
1042
1040
1037
1035
1034
1031
1025
1018
1013
1010
1011
1010
1006
1001
1001
999
1002
1005
1003
1002
994
997
999
1003
1002
1004
1004
1003
1005
1006
1009
1012
1028
1059
1097
1145
1187
1218
1230
1237
1239
1228
1208
1163
1104
1047
1013
1009
1012
1010
1002
999
997
1000
996
993
986
984
983
985
982
980
975
975
975
980
977
973
969
972
974
976
972
973
968
971
973
974
973
973
971
973
974
974
976
973
971
974
974
977
977
978
974
979
982
983
981
979
980
982
983
989
989
989
986
990
992
996
997
995
995
997
1002
1005
1002
1001
1005
1006
1012
1016
1016
1014
1013
1014
1018
1023
1026
1025
1025
1027
1029
1033
1032
1031
1029
1033
1030
1036
1033
1029
1027
1026
1026
1028
1023
1018
1014
1013
1011
1011
1010
1004
998
1000
1000
999
996
993
989
990
989
990
987
982
982
977
980
980
980
978
972
974
973
977
977
974
972
974
972
977
979
975
973
975
974
980
982
980
977
976
977
981
981
980
980
982
982
989
991
987
985
987
987
992
989
985
989
986
988
992
992
989
989
990
994
994
990
990
989
986
990
992
991
989
986
984
988
989
986
986
983
983
986
987
984
983
980
980
979
984
982
983
981
979
982
983
982
981
979
978
981
986
984
980
976
976
979
981
983
981
978
978
982
981
983
979
979
979
982
980
983
982
981
981
983
988
988
983
979
981
986
990
992
993
994
995
999
1003
1003
1004
1004
1007
1014
1021
1027
1027
1025
1027
1030
1029
1027
1030
1027
1024
1023
1022
1018
1014
1009
1003
1005
1003
997
997
995
995
999
1002
1003
1000
997
999
1005
1006
1007
1007
1006
1007
1010
1019
1033
1057
1091
1133
1180
1218
1238
1250
1249
1242
1230
1203
1154
1091
1036
1012
1010
1019
1015
1007
1003
1001
1003
1003
1001
996
991
990
990
992
989
989
988
989
990
993
990
988
986
985
987
989
986
988
985
984
987
992
991
993
986
989
993
996
997
994
991
994
996
1000
999
998
997
996
1002
1006
1005
1003
1001
1005
1007
1010
1010
1013
1010
1012
1015
1020
1022
1022
1019
1020
1026
1028
1030
1031
1030
1030
1037
1041
1041
1041
1041
1045
1049
1052
1053
1053
1053
1056
1061
1062
1065
1063
1061
1060
1062
1068
1067
1064
1060
1061
1058
1063
1060
1058
1055
1052
1054
1054
1053
1047
1042
1040
1038
1040
1034
1031
1028
1027
1027
1029
1025
1020
1016
1013
1015
1016
1014
1010
1006
1006
1008
1008
1008
1001
1000
999
999
1006
1004
1002
999
997
1000
1003
1002
998
994
994
998
999
999
998
997
998
1000
1003
1005
1004
1001
1003
1002
1009
1008
1006
1005
1006
1010
1014
1014
1013
1012
1012
1016
1019
1016
1016
1014
1017
1019
1023
1020
1017
1014
1014
1017
1020
1017
1016
1012
1010
1014
1016
1017
1014
1012
1010
1011
1017
1016
1010
1006
1006
1005
1010
1011
1008
1004
1001
1007
1007
1006
1003
1001
999
1003
1005
1004
1001
998
997
997
999
997
993
994
994
996
1001
998
995
993
989
993
996
996
994
989
991
994
1000
997
995
991
996
996
998
998
998
994
994
1000
1005
1009
1007
1008
1010
1015
1019
1019
1018
1018
1021
1030
1036
1036
1035
1032
1031
1033
1035
1036
1031
1027
1023
1015
1016
1013
1011
1001
998
1001
1003
1000
998
995
996
996
1002
1001
997
997
998
999
1004
1000
1000
994
998
1010
1027
1053
1087
1124
1167
1205
1229
1238
1238
1228
1214
1187
1150
1096
1039
1009
1003
1008
1012
1005
999
992
987
987
986
980
981
970
971
970
974
971
966
964
963
965
967
966
963
960
960
963
965
963
960
956
960
960
962
965
959
960
960
963
966
966
960
962
961
966
969
969
964
964
966
971
974
974
972
972
974
979
983
981
979
979
980
984
990
989
990
989
992
995
999
999
1000
999
1000
1008
1011
1012
1011
1012
1016
1020
1025
1026
1027
1025
1027
1033
1035
1035
1034
1033
1032
1034
1040
1038
1035
1033
1033
1033
1031
1033
1026
1020
1017
1019
1020
1017
1012
1007
1004
1003
1004
1003
999
995
993
993
994
992
989
986
984
985
986
984
981
980
979
979
985
982
978
977
977
980
981
978
974
973
971
978
980
981
975
974
972
974
977
979
976
972
973
977
981
980
978
976
975
975
982
980
979
978
977
979
983
985
983
980
979
982
988
987
986
982
982
986
988
987
984
982
982
985
990
990
986
983
985
985
989
989
986
984
985
986
989
990
985
983
982
984
984
983
983
980
978
981
983
984
980
978
978
980
982
982
979
977
977
978
977
979
977
975
974
978
979
979
978
973
975
977
978
980
977
975
975
977
978
977
979
976
974
978
982
983
979
975
974
975
980
980
980
978
978
978
982
981
980
977
977
979
982
983
983
978
980
980
983
984
984
982
980
985
990
990
990
989
992
997
1002
999
1002
1003
1005
1010
1020
1024
1025
1021
1023
1024
1029
1028
1026
1021
1019
1017
1015
1011
1005
1000
994
999
998
995
993
987
987
991
993
994
992
992
992
994
999
998
997
993
992
996
1008
1023
1045
1081
1122
1166
1204
1224
1232
1229
1226
1215
1195
1154
1102
1050
1011
999
1004
1003
998
987
987
987
987
981
979
973
972
972
973
970
967
964
963
962
962
965
962
958
957
959
962
964
961
958
958
960
962
963
961
961
961
965
964
967
961
963
964
965
967
967
966
963
962
969
970
971
973
972
972
974
976
980
976
978
978
979
987
987
989
987
986
993
997
999
999
996
998
1003
1007
1009
1010
1009
1010
1014
1021
1022
1024
1023
1025
1029
1034
1036
1036
1034
1032
1038
1041
1040
1038
1037
1036
1039
1043
1039
1037
1033
1031
1031
1031
1030
1024
1020
1019
1017
1016
1013
1011
1005
1001
1004
1005
1001
998
994
991
992
992
993
991
987
986
988
990
989
985
981
982
985
986
984
979
978
980
983
987
984
982
980
981
985
988
989
986
985
985
987
992
989
989
989
990
992
996
995
994
991
990
994
998
999
997
996
998
999
1003
1002
1000
998
995
1001
1005
1005
1003
1003
1004
1005
1009
1010
1007
1005
1003
1005
1009
1007
1004
1005
1001
1003
1005
1004
1004
1000
998
999
1004
1000
998
997
996
998
1002
1001
998
995
994
995
998
997
995
992
994
996
997
998
994
994
991
992
994
994
989
988
988
989
994
995
992
989
988
993
995
994
990
989
986
991
993
992
991
988
986
988
996
992
988
984
982
989
995
992
987
986
988
986
992
991
990
986
987
986
992
994
988
985
983
988
992
990
988
988
985
987
990
990
987
985
982
985
987
988
987
983
984
987
991
989
985
984
985
986
990
990
989
983
984
987
991
991
987
986
989
989
995
994
993
991
998
1002
1008
1009
1009
1010
1012
1017
1023
1027
1030
1034
1036
1039
1046
1041
1037
1036
1033
1029
1027
1021
1017
1014
1011
1009
1008
1006
1001
999
998
1001
1004
1002
999
998
999
1001
1005
1005
1002
1001
999
1001
1011
1029
1061
1098
1151
1198
1234
1255
1261
1258
1247
1226
1193
1135
1062
1007
987
999
1009
1004
997
990
989
987
986
985
979
975
972
974
975
973
968
967
969
968
971
969
967
963
963
964
967
965
963
964
963
965
970
967
968
967
965
965
971
972
972
971
970
972
974
975
974
971
971
978
979
979
980
979
979
983
986
988
985
988
989
992
997
997
997
997
999
1003
1009
1010
1010
1009
1013
1018
1021
1025
1022
1022
1024
1029
1035
1037
1037
1036
1035
1037
1040
1041
1040
1037
1037
1040
1039
1041
1035
1030
1030
1033
1034
1029
1026
1021
1018
1016
1015
1014
1007
1004
999
1001
1001
998
995
991
987
988
988
988
984
977
979
981
982
982
976
973
974
975
975
978
975
971
973
973
979
977
973
972
968
972
976
975
975
974
974
978
981
981
980
979
979
983
986
987
983
982
983
985
988
992
991
987
989
991
992
994
992
992
989
991
994
994
993
991
990
992
993
992
987
986
985
984
988
989
988
984
981
984
985
984
984
982
980
980
986
984
982
980
978
978
982
977
977
973
970
971
978
980
974
971
971
970
974
976
972
971
972
971
974
975
973
970
973
972
978
976
975
971
973
973
973
973
973
970
968
974
974
973
972
967
968
970
972
972
967
965
966
965
970
970
970
969
969
972
973
976
972
969
968
972
973
974
972
966
967
970
971
973
972
967
967
969
971
975
971
969
969
967
974
973
971
969
970
971
975
973
972
972
972
973
976
978
978
974
975
982
984
987
985
985
987
992
999
1000
1001
999
1003
1016
1022
1025
1027
1024
1020
1021
1019
1017
1013
1007
1007
1004
1001
1001
995
991
987
987
989
988
985
982
983
986
992
991
991
989
991
991
994
993
995
1005
1032
1073
1125
1175
1213
1236
1250
1246
1240
1213
1162
1095
1027
992
982
989
986
984
979
976
977
975
974
966
965
965
965
965
961
956
956
957
956
955
955
956
953
956
962
961
959
958
958
959
964
963
960
959
959
963
966
966
965
958
960
963
971
971
969
966
966
968
974
974
973
972
972
975
977
978
977
977
976
980
986
989
990
989
992
997
1001
1001
1005
1004
1005
1008
1014
1017
1021
1019
1020
1023
1029
1030
1030
1028
1026
1035
1035
1034
1032
1030
1025
1028
1027
1027
1022
1017
1016
1016
1013
1010
1004
996
996
997
995
991
986
982
976
974
977
974
967
965
962
963
966
963
960
957
954
955
957
957
956
953
951
955
953
956
954
949
952
953
956
954
955
956
955
958
963
965
963
960
962
965
967
967
964
964
963
961
966
965
964
962
966
969
971
972
968
967
968
969
972
973
968
967
968
967
970
970
966
963
963
965
967
965
965
962
961
962
963
962
960
956
954
956
959
958
958
955
954
957
956
956
955
949
947
953
956
955
952
951
950
952
953
951
952
950
947
950
952
952
952
950
948
951
954
954
949
949
952
951
952
953
951
950
946
951
955
954
953
951
952
951
954
956
952
946
950
951
953
953
951
948
950
954
955
953
951
948
949
952
954
953
954
954
952
956
960
961
959
956
959
961
965
964
968
969
970
975
980
981
980
980
983
987
997
1003
1004
1003
999
1000
1003
1003
999
997
991
993
992
989
987
982
981
982
981
978
976
973
975
977
981
979
980
979
981
987
989
987
987
992
1008
1036
1077
1128
1177
1215
1239
1250
1252
1239
1210
1165
1101
1036
999
985
990
990
986
985
989
988
983
978
979
980
981
979
978
975
973
974
977
975
973
968
970
971
976
972
968
966
965
968
971
968
965
963
965
968
971
969
972
970
970
972
977
979
976
974
978
979
985
985
985
982
981
982
986
990
988
990
991
993
999
1000
1000
1000
1000
1005
1007
1011
1013
1011
1016
1020
1030
1032
1032
1031
1036
1041
1045
1048
1044
1045
1046
1050
1053
1055
1052
1050
1049
1049
1050
1048
1048
1043
1038
1039
1038
1035
1030
1022
1019
1020
1020
1018
1011
1006
999
1000
997
997
992
989
982
983
984
982
980
975
971
974
976
975
972
965
965
965
969
967
963
963
961
965
969
967
963
961
960
961
963
965
967
964
967
965
969
971
968
969
970
974
978
978
978
976
977
977
982
981
983
982
982
984
988
986
985
983
985
985
991
987
987
987
987
985
989
989
987
984
983
981
988
985
984
979
978
980
982
985
981
978
978
980
980
981
979
977
976
981
985
984
981
978
976
975
976
975
973
972
972
972
972
970
970
968
971
968
975
975
974
969
972
975
977
976
975
967
964
963
967
961
960
960
960
962
967
967
966
964
964
966
969
968
964
961
961
962
962
964
961
959
961
963
965
967
961
961
964
966
968
967
963
963
965
969
971
974
974
974
975
981
984
982
982
985
988
993
998
1003
1005
1009
1009
1010
1014
1011
1008
1003
1001
1001
1001
997
991
989
984
983
984
981
975
972
972
974
976
977
973
974
974
980
983
984
984
980
979
982
992
1009
1039
1079
1134
1183
1222
1241
1246
1245
1233
1213
1175
1117
1047
990
972
984
993
991
981
977
976
976
975
971
968
963
963
966
964
964
959
958
957
956
958
959
957
955
955
959
959
958
955
950
948
953
958
956
953
952
954
959
961
961
959
956
953
952
962
961
960
958
959
961
965
967
965
966
969
973
979
979
976
969
971
976
979
980
984
985
987
989
993
994
992
992
998
1004
1008
1010
1014
1013
1015
1017
1026
1027
1029
1027
1030
1038
1043
1047
1042
1041
1040
1042
1045
1046
1038
1037
1035
1034
1034
1030
1026
1021
1013
1014
1014
1009
1004
999
996
995
997
994
986
974
969
967
973
973
969
964
965
961
960
957
957
953
955
957
958
958
955
951
949
951
955
955
955
951
949
948
951
950
948
945
947
949
952
954
952
948
948
952
953
953
951
952
952
955
954
957
958
956
956
959
961
962
961
959
962
965
968
965
961
961
961
965
969
969
968
964
960
960
968
971
967
960
961
964
969
970
964
957
956
959
964
967
963
960
958
960
964
962
960
957
957
961
962
963
960
958
959
957
958
958
958
956
959
957
957
956
959
958
957
957
958
959
959
955
955
960
962
962
962
957
955
954
958
959
957
958
957
957
960
960
959
958
956
960
965
963
965
958
960
963
966
964
966
963
964
967
965
963
964
962
963
968
970
972
968
968
970
975
979
979
975
970
966
971
979
978
976
975
978
984
986
988
989
987
993
997
1002
1003
1003
1002
1007
1013
1021
1028
1030
1030
1032
1033
1034
1029
1021
1018
1020
1017
1016
1011
1007
1004
1002
1000
1001
998
993
990
993
994
998
998
998
998
996
995
999
1000
1000
999
998
1009
1026
1050
1081
1120
1165
1208
1240
1258
1263
1258
1249
1229
1197
1140
1074
1014
986
988
995
997
989
985
984
984
984
982
977
974
972
970
971
970
966
964
962
963
967
966
965
960
962
964
967
967
965
962
963
967
968
968
965
964
964
968
969
969
967
966
966
967
972
973
973
971
973
974
974
976
977
975
976
976
982
985
984
981
980
983
986
991
991
990
989
994
999
1002
1002
999
1000
1002
1010
1014
1015
1015
1017
1022
1027
1028
1028
1028
1031
1038
1042
1042
1039
1037
1041
1044
1043
1044
1043
1041
1041
1041
1041
1040
1037
1032
1028
1029
1029
1027
1022
1016
1013
1011
1012
1008
1002
997
993
992
994
991
986
981
979
979
979
977
974
972
968
967
969
967
964
960
960
963
966
964
963
960
959
957
963
965
962
958
961
963
964
964
963
962
960
962
967
966
965
962
962
964
969
970
967
968
968
969
973
973
972
968
970
971
973
974
974
972
969
973
975
974
970
970
969
969
972
970
966
964
964
964
966
966
961
960
957
961
963
963
958
955
954
956
961
958
955
955
952
954
955
955
951
949
950
948
948
948
949
947
947
949
950
950
945
944
942
946
947
949
944
944
942
942
945
947
943
940
940
942
943
944
943
940
938
940
941
943
939
937
934
939
941
942
941
935
937
940
939
939
939
937
934
941
943
940
941
938
936
936
940
940
936
934
934
934
938
939
937
934
931
933
936
938
936
935
934
936
941
939
939
938
938
943
945
947
946
943
946
955
960
964
965
966
968
976
985
990
991
989
988
989
988
984
980
973
973
969
966
964
959
949
946
950
950
945
944
940
940
942
945
946
946
946
946
944
949
947
947
947
948
951
960
977
1003
1033
1083
1136
1183
1218
1237
1244
1242
1231
1205
1161
1096
1021
963
937
936
940
937
930
929
927
930
931
930
924
921
919
923
921
917
911
908
909
909
912
911
907
907
910
915
914
911
909
912
915
919
918
917
913
915
919
920
923
922
919
919
919
927
926
923
921
924
926
929
929
928
926
929
933
937
937
937
935
937
940
944
948
945
947
948
950
958
961
961
962
962
967
968
974
971
978
981
987
991
995
996
995
996
1004
1012
1013
1011
1017
1019
1024
1029
1032
1029
1028
1030
1028
1033
1031
1032
1027
1023
1023
1022
1019
1014
1012
1008
1008
1006
1003
997
989
986
983
981
979
971
969
967
963
964
964
957
954
952
949
953
953
948
944
942
943
946
942
939
936
938
940
942
944
943
938
936
939
943
941
940
938
943
945
948
946
945
946
945
949
951
953
951
946
948
953
957
957
957
953
955
959
960
960
957
954
957
959
961
961
955
954
958
962
963
963
960
956
956
956
957
958
958
951
955
953
958
955
954
946
946
946
948
954
952
949
949
950
952
953
946
944
944
948
949
946
940
935
937
940
943
944
943
939
939
942
945
943
944
939
942
943
946
945
942
938
937
942
943
947
945
941
943
942
946
946
944
943
941
944
947
948
948
946
946
949
952
952
949
943
947
948
954
954
949
950
948
952
957
960
960
961
961
966
972
972
975
975
977
985
990
998
1001
1002
1002
1007
1010
1011
1002
997
994
991
989
985
980
974
971
967
967
964
961
958
957
958
960
958
957
958
959
962
965
965
964
962
963
971
988
1011
1047
1093
1150
1199
1234
1254
1261
1254
1241
1217
1169
1104
1026
967
947
953
963
958
955
951
949
950
951
946
940
937
932
935
934
934
933
930
928
929
935
934
933
929
930
931
932
934
932
930
930
934
935
936
936
933
932
932
938
937
939
935
936
941
940
943
942
943
943
946
952
951
954
948
950
954
960
964
963
962
965
970
973
973
975
976
979
986
989
993
993
994
994
1001
1005
1009
1010
1011
1017
1021
1028
1033
1033
1032
1037
1042
1045
1048
1049
1047
1047
1050
1052
1052
1048
1044
1044
1043
1043
1039
1033
1026
1024
1022
1021
1016
1010
1006
1001
997
999
995
989
984
982
983
982
977
975
971
970
972
972
970
967
960
959
960
965
964
962
959
956
958
962
962
962
959
958
960
963
965
965
961
959
963
967
969
967
965
968
971
974
976
971
970
968
970
974
977
973
972
970
972
977
980
980
977
975
979
981
978
979
973
975
979
977
979
978
974
976
975
977
980
979
970
971
973
976
977
975
972
972
972
975
971
969
965
965
966
970
967
968
965
964
965
965
965
966
964
962
966
966
968
964
964
962
961
965
964
964
963
959
961
965
969
966
961
959
961
961
964
960
959
958
962
965
965
960
958
960
963
965
966
964
960
959
962
964
969
965
963
967
970
976
978
977
977
974
983
991
992
993
993
1000
1006
1016
1020
1021
1018
1016
1022
1021
1019
1013
1004
998
994
992
989
983
976
973
972
971
973
971
969
969
971
973
976
975
973
973
973
975
977
987
1008
1048
1107
1168
1222
1256
1274
1279
1273
1252
1208
1145
1064
996
965
968
976
975
965
963
963
965
965
956
953
947
949
951
946
945
941
942
942
945
944
942
941
938
939
943
945
944
938
936
941
947
945
945
942
942
945
948
951
952
948
949
953
954
957
956
954
957
959
962
965
967
961
961
970
975
976
975
974
975
980
982
986
985
986
988
995
999
1000
1004
1006
1012
1017
1019
1023
1024
1024
1030
1033
1040
1043
1041
1042
1044
1045
1048
1050
1051
1048
1048
1048
1050
1048
1043
1036
1031
1032
1033
1030
1027
1022
1016
1013
1013
1009
1002
997
992
992
992
989
983
978
975
976
976
975
972
967
966
968
966
967
965
961
962
964
963
962
960
958
955
960
960
964
961
958
961
964
963
966
966
961
965
966
966
970
966
967
967
970
972
974
973
971
971
973
976
977
976
974
972
974
977
977
973
972
972
972
978
978
978
972
971
971
977
978
975
972
970
971
971
973
972
969
967
968
966
965
964
964
961
963
966
965
965
962
964
963
964
969
964
959
959
965
966
967
963
958
959
962
963
963
963
960
956
957
962
959
959
957
958
959
959
960
960
957
954
958
960
963
959
957
957
958
963
962
960
956
955
956
960
963
958
953
954
957
963
963
960
958
957
961
964
964
961
961
959
963
965
969
971
970
972
976
983
987
988
984
988
998
1003
1009
1013
1015
1015
1020
1024
1025
1021
1016
1012
1011
1005
999
993
986
979
976
975
971
969
967
967
969
971
970
970
968
964
969
971
969
968
966
971
977
1003
1034
1075
1128
1184
1231
1262
1279
1280
1268
1247
1205
1143
1061
989
952
956
965
968
968
960
955
957
956
955
952
947
944
940
943
944
943
941
938
938
937
942
942
939
934
935
939
942
942
942
939
939
943
945
948
944
942
942
944
944
948
947
945
947
951
952
951
950
951
951
953
959
960
961
958
960
962
969
969
970
967
970
974
979
983
984
984
986
989
994
1000
1002
1002
1005
1010
1018
1020
1022
1019
1024
1030
1033
1034
1037
1036
1041
1046
1048
1048
1044
1046
1044
1047
1050
1047
1047
1041
1038
1037
1035
1033
1027
1022
1018
1017
1011
1011
1005
997
996
992
994
991
986
981
977
977
979
975
971
969
967
970
970
969
966
959
957
959
960
962
961
959
957
957
957
961
961
956
960
962
964
963
963
961
963
966
968
970
966
966
964
967
970
973
972
970
967
972
972
976
974
971
972
974
975
975
974
972
971
975
977
974
973
968
971
973
974
975
972
970
969
970
971
971
966
962
963
966
967
967
965
965
963
962
963
962
958
958
959
963
962
962
959
957
957
957
961
960
958
954
951
953
956
955
956
953
950
955
958
958
955
954
954
952
957
957
956
952
951
952
955
957
953
951
950
955
955
957
956
952
950
954
956
957
953
951
948
953
958
958
955
952
953
955
955
954
957
954
950
957
962
961
961
958
959
961
966
968
969
968
971
976
984
988
988
988
990
1000
1006
1009
1011
1010
1009
1014
1016
1015
1006
1000
993
987
986
985
977
972
964
967
968
969
966
960
963
964
966
968
968
966
965
968
970
977
988
1011
1052
1107
1168
1219
1262
1281
1294
1289
1273
1231
1156
1066
985
948
953
963
962
954
948
948
954
952
947
942
940
940
942
939
940
935
935
936
939
937
935
934
935
937
939
940
941
937
938
940
941
941
941
940
936
941
943
945
946
941
938
946
949
951
952
948
949
952
956
962
959
960
961
962
967
967
969
968
969
974
980
979
981
984
984
990
995
1000
1002
1002
1007
1012
1018
1022
1025
1026
1029
1036
1040
1045
1044
1046
1049
1053
1054
1056
1055
1053
1055
1055
1054
1054
1051
1046
1043
1041
1041
1038
1031
1025
1020
1020
1016
1014
1008
1002
996
996
993
992
986
981
979
979
978
976
972
968
965
966
965
962
960
961
957
962
962
963
959
956
955
955
962
963
960
961
960
962
966
965
965
965
964
964
968
968
969
966
966
969
973
978
976
974
975
977
982
981
980
979
979
977
984
984
981
980
980
981
984
983
981
977
979
981
984
985
981
978
977
977
979
979
976
973
970
973
975
974
973
971
970
972
973
969
968
966
965
967
967
967
967
962
962
964
966
969
966
962
961
962
964
963
961
956
958
962
962
964
961
960
959
960
964
963
962
960
959
958
960
964
964
960
960
962
964
964
961
960
956
960
964
965
962
959
959
960
959
963
962
957
957
958
962
964
965
962
962
964
967
970
966
966
967
968
972
976
977
976
979
985
986
992
992
992
995
1003
1013
1016
1019
1019
1019
1022
1023
1026
1023
1019
1013
1008
1004
1000
994
986
981
978
975
974
972
965
965
966
968
970
970
968
968
971
974
976
972
969
973
982
1003
1035
1078
1129
1190
1240
1274
1293
1295
1286
1273
1240
1188
1118
1032
975
957
963
974
971
966
959
958
956
957
954
951
946
946
943
947
946
947
942
939
940
942
944
941
939
940
942
942
945
942
941
940
940
946
947
944
942
942
943
946
949
949
947
948
950
955
956
956
954
957
961
962
963
964
962
963
968
974
973
973
976
975
977
984
988
989
986
990
992
1000
1004
1005
1004
1004
1010
1011
1018
1021
1021
1026
1031
1036
1039
1040
1044
1046
1052
1057
1056
1057
1053
1056
1059
1064
1065
1063
1056
1058
1056
1059
1055
1052
1047
1042
1038
1039
1034
1027
1019
1017
1016
1014
1010
1002
1001
996
995
992
994
987
982
983
981
982
984
977
974
970
971
970
969
969
965
967
966
967
966
966
962
959
966
966
969
966
964
963
963
967
969
969
964
964
966
971
971
971
970
968
970
971
975
973
971
971
973
976
978
976
975
975
977
982
981
977
977
977
979
983
981
978
978
978
980
983
977
977
977
976
979
980
980
978
973
972
973
975
976
974
970
971
969
971
972
969
968
966
966
966
966
965
961
959
960
962
965
964
962
961
964
965
967
964
960
961
961
966
966
965
963
961
961
963
960
959
959
959
962
966
960
958
958
958
958
959
961
961
957
959
958
962
962
960
958
956
957
960
963
957
958
956
960
962
959
961
956
956
958
960
963
960
957
958
961
965
961
960
958
955
957
960
962
956
957
956
960
964
962
962
961
960
965
967
968
969
966
968
972
977
980
984
980
985
990
996
998
1004
1004
1011
1019
1027
1028
1027
1024
1020
1020
1017
1016
1010
1000
996
992
990
987
981
976
971
974
974
972
966
966
969
967
972
972
968
969
968
973
975
976
974
972
984
1007
1045
1091
1144
1199
1243
1277
1297
1297
1290
1268
1226
1165
1092
1020
974
964
969
971
968
966
964
959
959
956
954
952
951
947
944
945
949
947
944
939
937
938
943
942
942
938
935
941
943
945
942
941
940
943
948
947
948
944
945
948
951
953
948
947
950
953
957
959
959
957
958
962
966
965
965
963
964
965
971
974
973
973
974
978
982
984
984
984
987
993
997
1001
1002
1005
1007
1012
1015
1016
1019
1021
1025
1031
1032
1036
1042
1040
1044
1046
1052
1053
1053
1052
1053
1056
1058
1060
1058
1054
1053
1050
1051
1050
1044
1037
1034
1034
1034
1031
1025
1017
1014
1009
1011
1007
1002
995
991
989
986
984
983
977
974
976
976
975
971
965
964
966
969
969
963
962
960
962
963
964
961
956
959
961
961
963
961
959
958
960
962
963
966
963
964
962
968
971
967
963
963
968
972
973
973
967
968
972
976
976
972
967
971
972
975
979
976
973
974
974
974
975
979
973
973
976
976
978
976
969
969
973
974
973
971
966
967
968
971
969
967
965
964
965
968
967
964
959
958
961
961
962
961
957
960
959
961
962
960
959
958
960
963
964
962
960
958
959
960
961
961
956
953
957
957
961
961
956
952
955
956
955
957
956
957
958
960
958
961
953
954
955
957
958
956
956
951
953
958
958
958
958
955
956
958
958
958
955
953
957
962
962
958
954
955
958
959
962
959
955
956
957
959
961
959
956
955
958
960
961
959
958
957
958
963
961
962
959
959
957
963
964
962
958
960
964
965
969
968
969
970
974
976
980
982
980
986
991
998
1003
1006
1012
1019
1027
1033
1034
1026
1020
1016
1012
1012
1010
1008
997
996
993
990
988
982
974
971
972
973
971
969
966
965
968
970
971
970
969
968
971
972
970
967
967
983
1011
1054
1108
1174
1229
1276
1305
1320
1318
1304
1276
1222
1151
1068
995
960
958
965
966
964
962
961
958
956
954
957
953
948
943
941
940
941
943
943
940
939
941
944
943
944
939
938
940
944
945
944
942
941
943
943
945
945
945
945
944
950
950
950
948
948
950
955
955
956
955
954
960
965
968
968
966
963
966
972
974
974
973
977
979
984
987
988
987
989
995
998
1001
1001
1005
1008
1014
1021
1024
1024
1023
1027
1033
1039
1042
1044
1046
1046
1051
1054
1058
1056
1054
1050
1056
1058
1057
1050
1046
1042
1042
1044
1040
1036
1030
1023
1025
1021
1019
1014
1006
1002
999
997
998
992
985
982
977
982
978
975
972
972
970
969
967
964
958
956
959
963
966
960
958
956
958
960
964
960
954
956
959
961
962
961
958
959
962
966
967
967
964
961
966
969
970
970
965
966
967
969
973
970
971
971
974
977
979
979
976
976
976
979
978
978
973
973
974
978
975
975
970
972
970
972
972
971
966
964
969
970
971
970
966
963
965
965
964
962
962
958
961
963
961
959
956
957
958
962
963
960
959
957
958
958
960
957
952
951
949
952
956
954
955
951
953
956
955
952
952
950
954
954
958
955
952
952
954
954
956
956
949
951
952
955
956
956
951
949
953
951
955
955
951
949
952
956
952
953
948
949
950
953
955
950
947
949
952
953
952
952
951
951
951
954
953
953
948
952
955
957
956
955
952
953
953
958
958
957
954
954
954
958
958
955
956
954
957
957
962
960
963
961
964
966
972
972
970
975
983
990
992
992
995
1000
1009
1020
1024
1022
1018
1013
1010
1007
1007
1004
1000
995
991
991
987
983
977
969
968
967
968
969
965
965
965
968
971
968
966
969
971
973
974
971
972
982
1013
1057
1117
1180
1233
1275
1300
1313
1308
1287
1242
1167
1077
997
955
952
961
962
963
960
956
956
952
949
947
950
949
948
944
943
942
944
945
945
942
940
943
946
946
947
941
941
943
948
948
949
945
944
948
952
954
952
950
951
954
958
957
956
957
955
960
963
966
963
964
964
970
972
975
973
969
972
977
981
987
988
988
989
993
994
999
1004
1003
1006
1010
1016
1020
1024
1026
1027
1033
1042
1047
1049
1048
1052
1058
1064
1067
1067
1066
1064
1071
1073
1075
1071
1067
1063
1064
1068
1067
1060
1053
1051
1049
1047
1043
1037
1028
1023
1021
1019
1015
1010
1006
1003
999
999
996
993
991
986
985
984
982
978
975
974
976
976
973
973
968
967
970
971
973
974
969
970
972
974
974
974
973
971
975
975
983
979
977
976
978
983
983
984
981
984
982
986
990
988
989
990
992
992
993
996
994
991
992
997
997
996
994
991
992
994
995
993
988
987
989
993
993
992
985
986
984
988
987
980
978
975
977
983
983
982
978
977
977
980
982
977
974
975
976
978
977
974
972
970
971
972
972
970
967
967
968
971
973
971
965
967
969
969
971
970
967
965
967
968
970
963
965
961
966
970
970
968
965
964
965
967
969
966
962
963
965
964
964
963
964
962
964
968
970
966
963
962
966
967
968
968
964
964
966
969
965
961
958
959
965
970
969
966
964
966
964
965
966
967
965
960
961
968
968
967
964
963
966
968
971
969
970
971
975
979
981
982
981
985
989
997
1000
1002
1004
1008
1015
1027
1035
1031
1026
1018
1013
1012
1011
1012
1005
998
993
993
988
982
976
972
971
969
969
969
965
963
968
972
972
969
969
970
968
966
966
966
979
1010
1063
1133
1212
1273
1312
1331
1338
1329
1302
1248
1165
1061
980
953
966
973
973
965
964
965
964
960
953
950
951
951
950
949
944
941
943
948
947
945
942
941
944
948
949
947
942
943
947
950
952
950
946
947
950
949
952
952
951
954
956
959
962
962
961
962
964
967
970
970
969
970
976
976
982
982
979
981
986
993
996
995
996
1000
1003
1008
1015
1018
1019
1020
1024
1031
1034
1042
1041
1043
1048
1050
1059
1062
1061
1061
1065
1070
1071
1069
1066
1059
1064
1064
1067
1059
1056
1050
1049
1049
1047
1042
1035
1028
1025
1020
1020
1013
1008
1002
1001
1000
997
991
988
984
982
983
983
983
978
974
973
974
977
972
969
964
965
968
968
967
964
963
964
969
969
967
967
966
967
974
975
974
971
969
974
975
977
978
975
974
976
979
978
981
979
977
979
980
983
982
979
981
983
983
986
983
981
982
984
986
986
984
980
979
982
983
983
983
978
975
979
982
982
980
975
973
974
974
974
973
969
968
966
968
966
963
962
961
961
962
963
960
957
956
955
959
959
954
950
950
950
951
951
950
947
947
947
950
948
947
942
941
941
943
941
942
940
941
943
943
944
941
935
934
938
941
941
941
936
935
936
938
938
937
935
935
932
933
937
936
935
932
934
936
936
934
934
931
935
937
936
939
935
935
935
938
942
942
937
937
938
943
944
942
940
937
941
947
949
946
945
943
947
949
951
951
946
944
950
955
955
959
958
957
961
963
968
973
970
970
977
982
988
991
997
1008
1014
1015
1013
1009
1003
997
998
995
996
993
984
979
978
981
975
975
969
969
970
975
977
974
969
972
975
977
984
983
980
981
987
997
1028
1073
1133
1203
1270
1317
1345
1351
1340
1312
1262
1181
1076
980
933
938
957
967
964
961
961
961
964
966
967
963
958
954
957
961
965
965
962
956
956
960
966
964
957
962
964
967
970
969
965
961
963
969
972
970
970
970
971
975
978
977
976
975
978
984
983
984
982
980
987
989
994
993
991
992
993
996
1000
999
999
1003
1004
1010
1014
1014
1016
1015
1024
1028
1030
1033
1031
1034
1041
1047
1052
1053
1055
1057
1062
1069
1073
1073
1074
1076
1079
1086
1088
1087
1085
1084
1086
1086
1085
1081
1075
1068
1071
1072
1067
1064
1054
1051
1049
1044
1042
1033
1028
1024
1023
1020
1018
1012
1006
1002
1001
1001
999
994
988
987
987
986
986
986
980
975
976
979
983
978
976
974
973
973
977
977
974
969
973
979
978
979
977
980
984
985
988
988
989
984
990
994
994
995
993
995
996
1001
1002
1004
1000
999
1000
1004
1006
1005
1004
1002
1004
1003
1002
1003
1000
997
998
1003
1002
1002
996
994
997
998
997
997
993
993
994
994
996
994
990
987
992
991
992
990
984
985
989
988
988
989
985
984
984
986
987
980
981
978
980
984
985
984
981
978
980
981
980
976
978
975
976
982
982
983
975
975
973
976
977
976
974
976
974
977
977
976
974
972
975
975
979
978
974
972
973
976
980
977
972
975
976
979
974
976
975
974
973
979
979
976
974
974
976
979
983
983
984
987
990
994
999
1001
1003
1002
1005
1009
1013
1015
1021
1030
1036
1037
1035
1030
1022
1017
1015
1015
1013
1006
998
993
991
992
991
987
978
977
978
980
984
981
978
975
980
980
982
981
975
971
971
970
967
971
991
1027
1088
1167
1246
1310
1346
1366
1373
1365
1338
1286
1203
1102
1008
957
956
975
981
980
979
981
981
980
972
967
968
966
970
970
963
962
964
965
966
967
965
961
967
967
970
966
965
965
968
971
970
965
967
963
968
972
972
974
971
969
971
972
972
972
972
971
974
981
982
983
979
981
981
988
992
994
992
990
995
998
1000
1004
1001
1001
1009
1012
1017
1019
1018
1020
1023
1024
1029
1034
1035
1037
1040
1048
1053
1055
1053
1056
1059
1067
1067
1070
1069
1070
1075
1076
1078
1078
1075
1073
1073
1075
1074
1071
1065
1059
1057
1058
1053
1050
1044
1040
1037
1034
1029
1026
1017
1017
1013
1010
1006
1004
997
995
994
996
996
994
990
985
985
985
986
982
979
975
976
982
982
981
975
972
975
977
976
978
976
974
976
980
982
980
976
979
981
987
987
985
984
983
987
988
991
990
990
992
993
996
995
997
993
994
995
1000
999
999
995
997
999
1003
1006
1004
1000
998
1000
999
1004
1003
1001
999
999
1003
1002
1001
999
995
996
999
998
994
993
990
991
994
992
994
987
985
988
991
993
992
989
984
988
988
988
986
983
978
983
984
985
985
981
977
982
986
983
983
981
979
982
985
985
980
980
979
980
982
981
980
980
978
979
979
983
982
980
978
975
981
981
980
979
976
979
982
982
981
977
977
976
978
980
980
977
977
979
984
981
981
975
976
977
981
981
980
978
977
978
987
992
992
994
994
996
1001
1005
1008
1009
1015
1026
1037
1041
1043
1040
1038
1038
1039
1041
1033
1023
1014
1009
1003
998
993
988
984
980
979
977
975
973
972
971
974
974
974
971
971
972
971
970
964
955
949
958
979
1015
1070
1139
1218
1290
1341
1368
1375
1372
1352
1315
1249
1152
1040
956
924
934
952
960
955
952
952
958
957
959
953
948
946
949
949
950
948
946
944
946
949
953
951
949
950
950
952
951
950
946
945
947
950
950
951
949
949
947
954
957
955
953
952
954
958
957
958
960
959
960
963
966
965
964
965
965
971
973
973
969
970
971
978
979
983
981
978
985
990
994
996
996
997
1001
1005
1008
1011
1012
1012
1018
1021
1025
1030
1030
1034
1035
1040
1047
1048
1050
1053
1056
1060
1066
1064
1066
1064
1067
1069
1068
1067
1065
1062
1061
1060
1061
1054
1048
1046
1045
1043
1038
1032
1030
1020
1018
1019
1017
1013
1007
1002
1002
1000
999
991
989
987
987
990
988
984
982
980
981
982
984
981
978
977
974
973
974
971
968
972
975
978
979
976
973
971
973
976
978
978
974
974
978
983
985
983
982
980
981
986
990
992
990
990
990
993
994
993
996
995
995
999
1001
998
992
992
995
996
1000
999
997
994
994
998
999
998
995
990
991
994
994
993
985
987
988
989
990
987
983
979
983
986
984
979
974
975
975
982
981
981
975
974
975
980
979
974
973
971
972
977
975
974
965
967
971
974
977
973
970
971
972
967
969
968
968
967
967
971
971
970
969
967
969
971
972
972
968
966
966
969
965
970
967
962
965
967
967
970
967
968
967
968
971
971
969
966
967
970
972
971
969
969
970
974
973
974
969
971
968
976
978
976
974
975
981
983
989
993
993
994
1002
1002
1007
1007
1015
1024
1033
1042
1045
1045
1041
1039
1042
1040
1033
1022
1009
1006
1002
998
990
983
974
971
973
973
974
971
970
968
968
971
976
969
967
961
953
945
937
940
960
1002
1073
1168
1261
1335
1375
1394
