824
824
824
824
824
824
824
827
830
830
830
830
828
829
829
827
828
830
829
833
835
834
831
834
833
832
832
831
830
831
834
834
839
838
836
837
836
834
831
832
834
833
836
835
839
839
838
838
837
835
834
834
835
836
837
840
840
840
841
841
840
840
838
838
834
833
838
841
843
844
842
840
839
839
839
840
838
837
840
843
843
845
844
843
841
840
842
840
839
842
841
844
845
844
844
843
842
842
840
840
840
840
842
840
844
845
844
843
841
842
840
839
837
842
843
843
845
845
845
844
842
843
841
840
841
842
840
844
846
845
845
845
843
842
841
842
841
840
844
844
845
847
845
844
844
843
841
840
840
842
843
844
845
847
846
847
847
846
844
846
845
847
850
848
851
850
850
850
851
852
854
854
857
860
860
862
862
861
858
857
854
851
851
850
850
851
850
852
855
858
860
861
861
860
859
856
855
853
849
848
848
845
842
840
838
837
839
839
838
840
842
842
843
842
837
837
837
841
854
874
893
910
924
931
935
925
902
874
840
821
821
842
880
929
982
1031
1076
1122
1162
1200
1229
1250
1262
1263
1257
1241
1218
1187
1151
1109
1067
1024
981
938
895
857
828
810
799
796
798
800
805
808
807
810
810
812
815
817
820
821
824
824
823
820
819
816
816
814
815
816
818
819
821
822
819
819
817
815
816
815
816
816
819
820
821
820
820
817
815
814
812
812
812
813
812
815
814
813
813
810
809
809
808
806
806
807
806
808
807
808
807
806
802
799
799
797
794
794
796
796
797
793
790
789
785
786
787
784
784
785
784
782
785
783
785
783
782
782
780
782
782
783
788
788
791
792
792
793
795
796
800
801
803
806
810
814
820
823
825
830
831
834
837
837
840
844
847
854
855
856
855
859
857
857
858
858
860
860
860
862
862
861
859
855
852
849
847
844
843
843
843
841
844
840
839
836
836
831
832
830
830
830
832
832
832
830
830
832
829
828
829
826
828
830
831
833
834
834
833
833
835
836
833
834
837
837
838
839
841
841
840
842
839
839
838
838
838
840
839
843
842
843
844
845
842
842
843
842
842
843
845
846
849
847
847
845
846
843
844
843
845
845
846
846
849
850
848
848
848
845
844
844
844
845
847
849
852
852
852
851
850
851
848
850
849
851
852
852
853
853
853
851
851
851
848
850
851
850
852
851
855
855
855
855
852
852
851
849
849
851
851
852
852
855
856
854
852
852
849
852
852
852
852
855
856
856
854
855
851
852
850
849
848
847
852
853
855
857
855
853
852
851
851
850
852
851
855
853
857
854
852
856
853
853
852
853
852
853
855
856
856
857
855
855
856
852
853
853
852
852
853
852
854
855
856
852
852
850
848
853
851
854
854
855
856
857
857
857
853
854
853
853
855
854
857
856
858
857
859
860
859
857
857
858
859
860
858
859
860
863
865
865
866
866
865
866
868
868
867
866
866
864
863
860
860
861
860
861
865
869
870
873
874
873
869
867
867
861
855
853
850
851
852
851
854
855
854
855
852
852
851
851
851
849
849
849
856
864
879
896
911
925
932
929
922
902
876
854
843
855
886
933
983
1039
1093
1143
1192
1235
1270
1293
1304
1302
1283
1260
1227
1185
1137
1091
1046
999
955
908
869
838
815
802
795
797
800
804
809
814
820
820
826
831
830
828
828
825
822
821
823
825
828
828
829
828
828
826
825
823
823
821
822
824
825
827
828
828
828
825
823
822
817
818
818
819
821
823
824
824
823
819
815
813
813
811
809
808
811
809
812
808
809
808
806
803
802
800
798
798
800
800
802
800
800
797
797
792
792
791
790
791
792
794
797
795
795
796
795
795
796
796
802
804
810
812
817
821
822
823
826
827
830
833
836
839
846
849
852
855
859
860
861
864
862
863
864
865
870
869
871
870
870
866
865
861
858
858
854
850
849
850
850
847
844
842
838
838
830
827
832
829
830
831
830
831
829
829
825
824
824
823
823
824
825
829
828
829
828
830
827
827
828
828
830
833
835
838
840
841
839
839
838
840
837
836
838
839
842
843
844
844
843
843
842
843
842
841
840
844
847
848
850
849
850
848
846
844
842
844
845
848
848
849
850
851
850
850
850
848
847
848
848
848
850
852
853
853
853
854
851
850
849
850
851
851
852
853
856
856
856
855
854
851
852
850
850
853
853
852
855
856
855
857
854
853
850
849
849
852
851
854
856
856
856
854
856
852
851
851
851
854
855
856
859
860
860
859
856
854
855
853
851
851
856
856
859
860
859
858
858
857
856
855
855
854
857
856
857
857
860
859
857
857
853
855
855
856
859
860
859
861
859
859
857
856
857
857
857
856
857
858
861
862
863
861
858
856
858
858
858
860
860
863
864
862
861
862
858
859
856
856
857
859
862
865
866
867
864
863
861
860
861
861
858
862
866
873
876
878
878
877
877
874
874
874
870
868
868
870
871
870
870
871
869
869
871
874
874
877
877
877
874
871
869
864
859
857
855
856
857
858
859
862
863
860
859
858
855
852
850
857
873
892
914
932
946
949
942
921
887
856
839
841
873
921
980
1036
1091
1138
1180
1215
1242
1256
1261
1256
1245
1228
1206
1172
1135
1092
1053
1011
965
921
885
849
831
819
815
817
819
824
829
830
831
834
837
839
838
840
841
842
840
841
840
839
837
836
836
835
836
837
837
839
841
839
836
838
838
836
836
834
835
835
833
836
835
835
836
832
833
830
829
827
828
830
829
830
831
830
825
824
823
822
821
820
820
820
821
819
819
817
816
820
814
813
812
809
809
810
810
812
811
811
809
806
803
799
800
799
799
800
801
802
802
802
799
798
799
801
801
802
806
808
813
814
817
818
822
824
827
828
831
834
837
842
847
851
855
858
861
864
864
867
867
867
871
874
877
879
880
880
880
876
873
874
874
875
874
871
873
872
871
869
867
862
860
858
857
856
853
855
854
854
855
853
854
852
849
850
849
849
848
849
852
853
854
856
855
854
854
853
854
853
855
857
858
858
862
863
861
857
855
857
856
858
862
862
863
868
866
868
865
865
867
865
862
864
866
865
865
869
871
871
872
871
872
870
868
869
872
871
873
873
876
875
875
874
872
871
870
873
873
874
875
876
875
874
875
874
876
877
875
874
873
875
878
878
880
879
881
879
878
877
878
878
877
881
883
883
885
885
886
884
883
883
882
880
880
880
886
888
887
887
887
886
886
885
883
884
885
888
890
892
890
893
893
888
889
887
888
886
888
888
890
893
892
890
891
889
888
888
890
891
891
894
895
898
898
897
895
893
893
892
891
894
894
896
894
897
900
898
897
894
893
893
893
894
896
898
899
899
898
898
901
898
898
898
896
895
900
900
905
903
906
904
905
902
899
899
902
903
903
905
907
909
913
912
913
912
911
908
908
909
911
912
918
923
926
925
927
924
922
920
917
913
915
917
917
919
919
920
917
917
919
922
927
926
928
928
928
927
923
918
916
911
909
905
905
905
907
908
910
912
913
913
911
910
907
902
904
910
921
936
954
972
987
991
991
978
959
932
912
910
930
969
1020
1076
1128
1176
1220
1258
1293
1319
1335
1344
1347
1334
1320
1299
1266
1223
1183
1143
1104
1066
1024
986
948
914
889
872
864
862
861
864
868
871
873
876
880
883
889
890
893
892
891
890
888
885
883
883
883
885
890
891
892
891
888
886
887
885
884
884
884
885
886
886
889
888
886
886
884
883
881
882
881
884
885
884
886
886
883
882
880
878
875
875
875
878
876
875
880
879
874
874
873
871
870
870
868
869
867
869
869
868
865
863
860
859
860
859
857
859
861
860
861
859
856
858
857
855
856
856
858
858
861
864
866
866
868
867
868
869
871
875
879
883
889
892
894
896
900
905
907
908
908
913
916
917
920
926
930
931
933
933
932
929
933
931
933
934
935
934
934
934
933
928
923
922
920
917
915
914
913
913
911
908
907
901
900
895
893
893
891
892
893
895
894
893
891
889
888
886
885
886
888
889
891
894
897
894
896
894
894
893
894
895
894
897
901
900
903
900
901
899
902
900
900
899
898
901
905
905
909
906
908
908
906
905
906
906
908
910
911
912
914
911
909
910
908
909
905
905
908
909
910
911
912
914
913
910
911
908
909
907
908
908
911
913
914
913
913
911
912
910
910
909
910
909
913
912
913
914
912
910
911
909
908
911
912
913
913
915
914
914
914
909
911
911
910
911
911
913
916
913
914
912
912
913
909
910
909
908
910
911
914
915
917
915
916
913
913
911
912
912
912
913
911
913
914
913
913
914
913
911
912
914
913
912
910
911
912
914
913
913
914
910
911
910
911
912
913
914
915
914
913
913
911
911
910
907
909
910
914
914
917
914
912
913
911
911
911
910
912
911
914
916
917
916
914
914
910
911
911
912
914
918
916
918
919
917
917
914
916
916
918
920
922
925
927
928
927
926
924
921
918
918
914
915
913
915
918
923
926
928
925
926
923
919
917
915
913
911
912
911
910
907
908
906
904
904
904
905
904
908
905
907
904
906
914
929
948
964
978
987
987
972
940
906
886
887
910
952
1002
1054
1102
1147
1188
1224
1252
1272
1281
1279
1269
1255
1231
1200
1163
1122
1084
1046
1006
965
929
897
875
863
856
856
859
865
871
875
881
887
887
889
887
886
881
880
880
878
878
878
882
884
886
884
885
883
883
882
882
882
880
879
881
881
883
881
881
880
877
876
874
876
872
871
876
876
877
876
873
871
870
867
867
866
867
865
867
865
864
866
862
862
860
859
856
852
856
855
855
855
855
853
851
849
847
844
839
838
839
841
841
843
842
841
839
836
833
835
832
834
835
837
837
840
845
844
846
846
847
847
851
856
859
864
866
870
876
878
880
883
884
886
890
892
894
899
903
906
908
911
913
912
911
913
911
911
910
911
906
909
910
910
907
903
900
895
894
893
892
891
892
889
888
884
885
879
880
880
876
875
875
878
878
880
881
878
876
876
872
871
872
873
871
872
876
877
879
879
879
879
878
876
877
877
875
879
880
879
883
884
882
881
881
881
877
878
879
881
884
886
885
883
883
882
883
883
881
883
884
883
886
888
890
888
888
886
887
884
884
884
882
884
887
886
889
889
887
887
887
883
882
882
882
883
884
883
886
889
888
887
885
883
882
883
883
885
884
888
889
886
884
887
884
886
885
882
882
886
885
887
890
889
887
887
887
884
883
881
882
883
885
885
885
886
886
886
885
884
881
881
881
881
881
884
889
887
886
885
881
880
879
880
882
881
882
883
882
883
883
882
883
883
882
883
884
885
887
887
889
889
887
885
884
884
880
883
884
885
888
888
889
889
885
885
883
880
880
881
879
884
883
885
886
883
884
883
885
883
880
881
880
882
884
885
887
886
884
884
882
878
877
878
881
882
882
883
886
886
883
882
881
880
879
879
880
881
882
882
882
884
883
883
884
884
883
883
885
885
885
886
886
887
887
891
890
889
893
892
893
893
894
893
894
891
890
886
887
884
883
882
885
889
892
896
899
899
899
896
892
887
884
880
876
876
876
875
878
878
878
875
874
873
872
871
871
870
869
871
878
889
905
925
937
948
952
946
928
901
879
866
876
904
950
1003
1058
1113
1162
1208
1248
1284
1303
1313
1310
1294
1270
1230
1182
1131
1083
1037
994
946
901
866
840
823
815
813
816
820
823
826
831
836
841
844
844
844
843
841
842
840
839
840
839
838
843
842
845
844
843
842
841
838
840
836
839
838
838
838
842
840
840
839
834
836
835
834
835
835
834
834
838
837
835
833
831
829
828
823
824
824
829
830
829
829
826
824
821
819
818
815
816
816
818
818
818
818
814
813
810
808
806
805
804
806
805
807
809
807
805
804
806
803
804
804
806
806
811
814
816
819
821
823
824
825
826
829
832
835
840
845
849
852
855
857
858
859
862
863
865
869
868
870
874
875
876
875
874
875
875
874
873
874
874
875
873
870
869
867
864
859
857
854
851
850
849
848
848
845
844
842
841
837
837
833
830
833
834
833
836
835
834
831
828
829
828
828
829
829
834
837
837
836
836
838
836
835
833
835
837
837
840
841
844
845
842
839
839
842
841
843
845
844
846
848
849
849
849
847
848
847
845
846
848
848
851
852
853
851
851
849
850
848
847
848
849
850
853
851
852
853
853
854
851
849
849
848
850
849
850
851
856
856
855
853
851
848
849
847
849
852
852
853
856
857
857
855
852
848
848
848
851
853
855
857
858
860
857
854
855
854
851
851
852
852
853
856
856
855
855
853
851
850
850
847
850
851
855
858
859
859
857
857
854
853
854
854
853
854
857
857
856
857
858
859
857
855
854
851
852
854
857
855
859
859
860
859
856
855
852
853
853
853
855
855
858
859
858
857
857
854
853
852
853
855
858
858
860
858
858
859
858
855
854
852
851
855
855
859
863
861
860
859
858
858
856
856
857
858
859
860
864
865
864
863
860
859
857
856
857
859
862
865
871
872
873
871
870
869
865
862
860
862
864
866
868
865
864
868
869
867
869
869
868
866
865
861
858
855
853
850
850
849
848
846
845
847
849
851
852
849
849
847
844
842
846
854
868
888
908
924
935
940
937
923
896
865
833
816
816
842
880
930
981
1024
1062
1102
1137
1170
1195
1217
1227
1226
1218
1206
1186
1155
1118
1081
1041
1004
965
921
878
847
826
810
804
803
805
809
814
818
819
821
822
823
826
829
830
832
829
827
823
823
822
824
824
824
826
827
828
827
828
826
824
823
822
822
820
819
824
820
822
826
824
823
819
820
816
812
817
815
815
815
818
817
818
819
815
814
810
810
809
808
810
808
810
808
808
806
804
802
799
798
797
799
796
794
795
796
795
793
791
790
787
786
786
784
785
786
785
784
784
784
782
779
780
779
779
781
783
786
787
790
789
790
791
791
793
796
799
802
805
808
815
818
820
822
824
827
829
832
836
838
843
843
847
848
852
853
853
852
853
854
854
854
856
856
860
856
855
851
848
846
843
841
839
839
838
837
836
834
830
829
826
824
819
820
820
819
820
821
823
821
819
819
817
816
815
815
814
815
819
819
821
820
820
820
822
819
819
819
820
822
823
826
828
828
827
825
823
825
822
826
826
824
827
826
829
830
829
828
828
827
827
826
825
828
829
831
832
832
831
830
828
827
825
825
824
828
830
831
833
834
830
829
830
824
827
827
826
827
830
831
834
832
833
831
830
827
827
828
825
830
832
832
832
831
828
829
829
828
828
828
829
827
828
830
831
833
832
830
829
828
828
828
828
828
830
831
832
832
832
830
829
829
827
825
828
829
827
829
831
832
831
828
829
826
824
824
830
829
829
833
832
833
830
829
827
825
825
825
823
827
828
829
833
834
830
830
830
828
827
828
826
830
831
832
834
833
833
832
830
829
827
827
830
830
830
833
835
836
835
834
834
831
832
831
834
832
832
834
837
839
840
839
840
841
841
842
842
843
843
843
844
844
842
838
836
836
833
832
835
837
841
844
850
851
850
846
846
842
836
831
828
827
826
824
827
827
825
828
825
826
825
822
821
819
819
823
834
848
870
886
897
906
903
893
866
838
821
822
848
891
946
1003
1057
1111
1156
1195
1231
1257
1274
1276
1266
1247
1215
1174
1126
1076
1027
980
936
892
854
823
799
783
775
774
773
774
779
783
787
791
795
799
802
804
803
801
798
794
794
793
795
796
797
796
798
800
801
799
796
797
792
791
790
794
794
796
798
797
796
796
793
791
790
789
789
789
790
794
795
794
792
791
788
788
787
784
783
783
785
783
786
786
784
783
781
777
774
775
771
775
773
773
774
774
775
771
769
769
764
764
764
763
763
765
765
763
765
764
762
762
761
761
762
764
765
768
770
774
779
778
783
782
786
790
790
794
800
801
808
810
813
814
817
820
821
823
822
827
829
832
837
838
836
837
837
836
834
834
831
832
830
830
831
829
826
826
821
819
815
812
812
811
809
810
809
809
805
806
805
800
799
799
799
798
799
798
800
801
800
801
799
799
797
796
797
798
800
801
803
803
802
804
804
805
805
806
807
809
811
813
813
812
810
815
812
811
812
812
811
814
816
817
818
819
819
819
818
818
814
814
814
815
818
818
820
820
820
818
816
818
816
815
816
816
818
819
822
824
824
823
821
819
818
817
818
819
821
822
824
826
825
825
823
822
822
821
819
821
823
822
824
823
824
821
817
819
817
818
822
822
820
821
825
828
828
828
825
824
824
823
823
824
827
828
829
829
830
828
826
824
825
824
824
826
827
830
833
830
830
830
827
827
828
826
827
827
829
831
831
833
831
831
830
828
829
827
827
829
830
831
834
834
834
832
830
830
828
831
829
831
832
834
834
834
833
834
832
830
831
832
832
833
833
833
834
836
837
835
835
834
832
834
832
833
832
835
838
837
839
838
838
839
838
838
839
839
840
839
841
840
841
846
844
847
845
847
849
849
852
853
851
852
847
847
846
845
844
843
844
845
847
852
854
857
858
857
851
850
847
844
842
838
836
836
837
838
832
832
831
832
830
833
831
834
837
837
835
835
832
834
840
852
868
887
904
917
924
917
896
862
830
810
817
841
883
938
993
1042
1090
1130
1166
1194
1211
1221
1220
1213
1196
1174
1145
1105
1065
1027
986
944
894
859
827
804
791
786
789
797
805
811
816
820
820
821
821
816
816
814
812
814
819
820
822
823
822
821
818
816
817
816
817
818
818
818
820
823
819
820
818
816
814
813
813
813
815
813
814
815
815
813
812
810
808
809
807
807
808
809
809
810
807
805
799
795
797
797
797
795
795
796
794
796
792
793
791
790
786
785
785
785
784
786
786
784
782
779
781
780
776
777
778
779
780
783
784
787
788
787
788
789
788
789
791
797
798
804
808
814
817
817
820
821
823
828
832
835
837
841
847
849
848
852
851
852
850
849
850
852
852
853
854
855
852
849
847
845
843
840
837
835
835
834
835
835
831
827
825
825
822
820
818
820
822
822
822
823
825
822
821
821
817
819
818
817
818
821
824
825
824
826
823
824
825
825
822
824
829
829
831
832
832
832
830
829
825
829
828
830
831
832
835
835
835
836
833
835
833
831
834
834
836
837
840
841
841
839
838
839
838
837
836
836
837
839
839
840
840
840
839
838
839
837
838
835
836
840
841
839
838
840
838
836
834
836
835
835
838
839
838
844
842
842
841
840
838
839
839
839
839
841
843
845
842
841
841
842
838
837
838
839
838
840
841
843
843
845
844
842
842
842
839
841
843
846
846
848
846
846
844
843
841
842
840
846
845
844
845
848
848
846
844
841
842
842
842
842
844
845
845
845
848
847
847
846
845
845
844
843
845
847
848
850
849
848
849
846
847
846
843
844
846
846
848
851
851
852
853
852
849
847
848
850
852
853
856
858
861
863
862
861
858
857
856
854
854
853
854
855
858
856
856
859
859
863
863
864
864
862
863
862
858
854
850
844
846
841
840
842
845
846
846
847
848
848
844
842
838
839
842
851
866
883
902
918
929
929
918
898
871
847
839
857
896
953
1016
1078
1140
1195
1244
1278
1300
1303
1295
1276
1247
1209
1164
1116
1066
1018
974
925
881
845
816
798
791
795
797
801
808
809
816
816
820
817
819
821
822
821
823
822
824
824
820
821
819
818
818
817
818
822
823
824
823
821
821
820
818
816
818
818
820
820
820
821
821
818
818
816
815
815
815
813
814
814
814
818
814
815
812
810
810
807
806
805
805
805
806
806
804
803
799
798
795
795
796
796
797
798
800
798
799
797
792
791
790
788
789
790
793
792
795
792
794
793
790
789
789
787
789
793
794
798
801
805
804
806
808
810
811
813
816
818
822
827
833
836
836
841
843
843
845
847
847
852
854
857
860
864
867
867
865
865
864
861
863
861
861
861
860
861
857
855
852
851
842
838
837
837
838
836
838
836
835
833
831
828
825
822
822
823
823
824
825
826
826
825
823
822
822
821
821
820
822
823
823
828
830
830
829
829
828
829
829
828
832
834
836
837
837
839
838
839
839
837
838
836
841
839
838
842
842
844
845
843
841
840
839
844
845
846
846
848
844
846
844
843
847
845
845
846
847
847
848
848
852
851
849
848
846
847
847
850
850
851
852
852
853
850
848
848
848
847
845
848
848
852
853
854
852
854
852
850
851
850
850
850
853
853
854
856
854
853
853
853
849
852
851
854
855
855
855
859
856
857
856
857
856
855
854
854
856
857
858
859
858
857
857
851
854
853
853
853
856
857
858
861
859
859
859
860
857
856
858
857
860
860
862
864
864
863
862
860
859
858
859
859
859
859
862
863
863
863
860
860
860
862
861
862
860
863
864
864
864
865
863
863
862
861
863
862
862
865
867
867
868
868
867
867
866
868
865
866
867
868
870
875
876
876
875
875
877
876
877
875
875
875
877
877
875
875
874
875
873
871
878
880
882
883
881
881
879
876
873
869
867
864
862
861
861
861
863
865
865
865
864
862
860
858
861
860
860
857
861
867
880
894
912
927
938
944
942
930
907
878
850
836
848
876
917
965
1016
1064
1110
1153
1191
1222
1244
1254
1252
1241
1221
1193
1155
1116
1076
1037
996
951
911
877
846
829
820
817
819
827
832
838
843
844
849
853
850
851
849
849
846
846
846
845
845
848
849
852
851
847
849
845
843
842
841
841
845
846
848
849
850
850
849
845
845
843
842
842
844
841
843
844
841
842
841
839
836
832
833
835
836
836
838
837
835
834
831
830
828
826
827
826
825
825
826
826
825
823
822
820
817
813
814
811
812
815
813
814
811
811
809
806
809
807
808
807
809
808
811
815
816
815
816
817
816
817
819
824
823
829
834
837
841
840
847
849
848
851
856
858
864
868
873
876
880
882
882
882
881
882
883
885
884
883
885
886
883
882
878
874
871
867
866
865
861
862
860
862
857
856
852
851
848
846
844
844
845
847
848
848
847
849
847
846
845
846
845
844
846
852
854
857
856
855
853
852
849
851
852
853
855
857
858
862
862
861
861
860
858
857
857
858
857
860
861
865
865
864
864
863
860
860
860
860
858
861
862
864
866
864
864
862
862
860
861
860
863
864
865
864
867
865
865
865
863
863
861
862
863
864
866
866
865
865
864
864
863
862
861
862
865
866
868
870
869
866
865
863
863
864
863
862
864
865
868
868
869
869
865
863
862
864
862
864
866
867
867
866
869
868
868
864
864
864
861
862
863
864
865
869
869
867
866
865
862
862
863
865
863
866
867
868
868
868
864
864
863
866
863
865
865
866
867
871
869
869
867
867
865
866
863
864
866
866
868
869
868
870
870
867
866
865
864
864
867
867
870
873
872
872
873
867
866
868
869
869
870
868
872
875
876
874
874
874
876
878
875
877
882
883
884
884
884
882
878
875
873
874
874
872
873
878
883
887
887
889
885
882
877
876
872
872
868
867
868
867
868
867
866
866
863
865
864
865
865
866
867
866
866
866
872
882
894
909
926
936
944
940
926
904
880
867
869
897
938
987
1041
1095
1144
1191
1232
1267
1292
1305
1308
1298
1281
1257
1225
1187
1146
1103
1060
1020
974
928
884
847
821
809
805
810
816
823
827
836
839
840
841
838
834
835
833
835
834
837
836
837
837
837
837
835
833
832
833
830
830
831
832
833
835
831
830
828
827
827
826
825
827
826
828
828
827
827
828
824
822
820
820
819
819
823
820
821
822
821
819
818
815
813
813
812
811
811
809
810
810
809
807
805
801
801
799
799
799
799
799
799
803
803
801
800
800
798
798
802
803
805
808
813
814
813
817
817
820
823
824
828
833
836
842
846
847
850
849
852
856
857
861
863
864
870
871
875
876
877
877
874
873
870
871
869
870
871
870
871
866
866
863
860
857
853
851
849
848
846
846
843
844
839
839
839
835
837
834
832
831
834
834
835
836
835
836
834
835
837
837
836
838
837
836
840
844
844
844
844
843
843
844
845
846
847
847
850
851
847
851
848
847
851
850
849
848
850
851
854
853
855
852
854
853
854
852
853
854
855
856
857
858
858
856
856
855
854
854
856
855
858
860
859
861
859
858
857
856
856
856
857
857
859
859
859
859
860
862
858
859
858
859
860
860
860
862
865
862
861
861
859
864
861
858
859
860
861
861
866
864
864
863
862
862
859
859
859
860
860
862
865
863
862
862
861
862
861
859
862
864
864
866
863
864
864
866
864
863
862
862
863
863
865
864
868
866
865
864
864
862
864
862
863
864
863
868
867
866
866
867
864
866
864
863
862
862
864
866
867
868
866
865
864
865
864
862
864
864
864
865
869
867
863
867
866
866
864
862
863
864
866
866
870
870
866
867
865
865
865
866
864
867
869
872
872
871
871
872
871
871
871
872
870
871
872
873
876
877
878
881
881
880
881
880
879
876
878
876
878
878
876
878
876
875
878
881
883
887
887
885
884
883
880
876
872
868
868
863
863
866
866
867
868
868
868
867
867
863
862
863
860
859
863
869
883
901
920
933
943
949
947
932
907
878
851
841
853
882
926
977
1024
1068
1108
1146
1183
1215
1239
1255
1261
1258
1248
1226
1194
1154
1111
1063
1011
961
907
867
839
821
816
817
822
826
832
837
840
842
844
844
847
845
844
842
839
837
837
837
838
841
841
841
844
840
842
841
840
837
839
839
837
835
838
838
842
841
841
839
838
834
832
834
834
836
835
837
838
837
836
834
830
829
830
830
829
831
829
832
832
832
827
827
827
827
825
820
823
819
820
819
821
823
818
817
815
816
813
810
811
812
813
812
811
816
814
813
809
808
808
806
808
812
814
817
819
820
821
819
821
819
821
825
827
831
835
839
842
845
850
849
849
851
855
856
860
864
867
871
872
872
874
876
879
879
877
878
880
880
882
883
886
884
882
882
881
879
872
870
867
867
865
864
863
861
859
854
849
845
843
844
842
842
844
844
845
842
841
842
840
840
839
837
837
838
839
840
841
843
843
840
842
842
842
843
843
844
845
846
849
849
849
849
849
847
848
846
848
850
850
851
853
854
852
854
852
851
850
852
850
852
856
853
855
856
855
853
851
852
853
853
854
855
856
857
859
859
858
857
855
855
854
853
854
856
858
858
859
860
860
860
857
858
858
857
858
858
858
860
864
862
862
862
858
859
856
858
857
857
861
858
862
861
860
860
859
857
858
858
857
858
859
862
863
863
862
863
861
860
857
861
860
862
863
863
865
867
865
864
862
862
860
861
862
861
862
861
863
864
866
866
863
861
862
861
861
861
860
862
865
865
865
863
863
863
860
860
857
859
862
861
863
863
863
863
861
861
860
857
858
858
862
864
864
863
863
861
861
860
861
860
860
861
864
863
863
863
865
866
868
867
870
871
871
873
875
877
877
874
872
870
868
865
865
865
866
865
867
869
875
877
880
881
877
874
869
865
859
858
858
856
856
858
859
856
856
856
856
853
853
855
851
854
858
867
879
894
910
925
934
935
926
906
880
859
854
867
897
943
994
1044
1095
1141
1184
1224
1257
1283
1299
1303
1295
1276
1249
1212
1166
1119
1074
1031
989
949
910
875
846
823
811
804
801
804
808
813
818
822
825
825
830
829
827
826
824
823
823
823
821
824
825
827
825
823
822
820
819
817
819
822
821
820
824
822
822
821
821
818
817
818
816
817
818
816
817
818
816
816
814
813
810
810
809
810
810
810
810
808
807
808
805
803
802
802
803
801
801
801
799
797
799
797
794
792
791
792
791
789
792
791
789
790
790
789
787
785
786
787
787
789
793
794
797
800
802
806
807
806
808
814
816
816
822
829
834
837
838
844
843
846
849
853
855
856
858
862
865
864
868
867
869
869
865
865
865
863
863
863
862
860
859
855
854
850
849
846
846
844
843
841
840
837
838
836
833
833
829
829
830
829
830
829
830
833
833
833
832
832
833
831
834
834
837
839
838
842
841
843
841
841
840
839
841
841
842
843
846
847
846
845
843
841
843
842
843
843
844
848
849
849
851
849
845
843
846
846
847
846
847
846
851
849
850
849
847
849
847
849
847
850
848
849
849
853
849
849
848
848
848
849
849
851
854
853
855
854
853
853
850
851
851
850
849
852
854
854
856
857
856
853
853
852
852
850
851
850
853
851
851
853
855
854
851
851
853
852
853
854
855
855
853
854
856
853
855
852
852
852
853
854
853
856
857
856
856
856
855
854
854
855
852
853
854
856
859
863
861
859
857
856
854
854
855
855
856
858
860
861
859
857
858
856
855
854
854
855
857
859
861
860
861
860
857
856
856
856
855
856
858
858
861
863
861
858
857
857
855
856
854
856
857
857
859
862
860
858
860
857
856
856
855
855
857
857
860
861
861
861
862
864
861
862
861
860
862
863
865
866
865
866
869
871
871
872
872
875
873
875
874
871
870
868
867
867
866
863
867
864
867
872
875
879
879
878
875
870
866
862
858
856
855
856
855
855
857
857
855
853
851
850
853
852
851
852
851
851
854
861
876
892
907
919
928
933
935
929
910
885
856
835
829
846
881
926
977
1026
1076
1121
1165
1207
1239
1263
1277
1281
1275
1262
1244
1216
1182
1145
1108
1070
1027
983
935
890
851
827
812
803
804
809
814
818
821
823
825
828
827
828
828
830
831
830
830
831
830
829
828
827
826
825
825
827
828
831
829
829
830
829
828
827
825
824
824
824
826
827
825
824
828
826
823
821
819
822
821
821
822
823
825
828
825
824
820
816
816
815
813
812
814
815
817
816
816
813
809
810
806
805
803
804
806
803
804
803
800
802
799
799
796
796
794
798
797
796
798
801
800
799
799
798
799
801
803
807
811
815
819
821
822
825
826
829
829
829
834
839
844
849
852
856
857
859
859
860
861
860
863
866
867
871
871
870
869
866
867
864
860
859
857
856
857
859
853
852
849
849
845
841
838
835
835
833
835
831
837
834
830
831
831
828
826
824
826
827
826
828
830
831
829
829
830
828
829
827
829
831
833
836
839
838
838
838
838
835
835
835
834
835
838
840
842
843
844
841
842
841
839
839
840
841
844
843
847
847
848
846
842
843
842
843
844
843
844
847
850
848
850
851
849
847
845
843
847
846
849
852
853
851
853
851
851
851
849
847
849
848
849
849
852
853
854
852
849
848
847
849
849
848
850
850
852
851
852
848
846
848
847
847
847
847
848
850
851
851
852
851
851
851
848
846
846
847
849
851
852
854
853
850
849
850
847
848
846
848
850
852
851
856
854
853
851
850
850
849
849
849
851
850
851
853
852
853
851
850
849
850
849
849
851
852
852
853
853
854
853
851
849
847
850
850
849
851
851
854
853
852
851
849
850
850
848
851
852
851
851
854
853
853
852
853
851
852
852
851
852
855
859
859
861
857
857
856
854
857
859
862
865
865
868
868
869
868
866
863
856
856
854
857
857
857
860
858
863
865
866
865
867
864
862
860
860
857
855
853
851
847
845
847
845
845
844
845
846
848
847
846
841
840
846
854
870
890
907
923
933
933
913
884
853
833
832
856
902
957
1016
1075
1131
1179
1220
1252
1270
1274
1264
1246
1215
1173
1124
1069
1019
970
922
879
843
817
800
795
797
800
806
813
819
820
826
828
827
825
825
821
824
822
823
819
822
824
827
828
828
826
826
824
823
822
821
821
820
822
825
826
825
824
824
822
819
818
817
816
817
818
816
817
818
815
813
811
809
808
807
806
809
808
806
805
805
802
801
801
800
799
798
800
797
799
798
797
797
795
795
793
789
787
788
786
787
786
787
787
787
785
788
783
782
781
783
784
787
792
795
801
802
804
804
807
807
810
812
816
818
822
828
832
836
837
836
840
841
843
846
848
853
856
858
862
864
864
865
865
861
862
861
862
863
865
864
864
863
860
858
855
851
849
849
847
847
846
845
844
843
840
837
837
836
833
833
831
833
831
832
835
834
832
833
833
830
830
831
832
832
834
836
838
835
836
835
834
832
833
836
837
841
842
845
846
844
843
840
842
842
839
841
841
842
842
843
847
847
846
843
845
844
843
845
845
846
847
849
853
852
848
847
847
844
847
848
848
849
851
852
853
852
850
848
850
851
849
849
851
853
853
855
856
856
854
854
850
849
851
850
852
854
854
856
859
858
855
856
852
851
851
852
850
851
851
854
856
854
854
854
854
853
852
850
851
852
853
856
859
858
856
853
852
851
853
853
850
853
853
855
856
856
856
853
854
850
849
849
852
855
855
857
859
856
857
853
853
852
852
852
852
856
857
855
858
860
858
856
854
853
851
848
852
853
855
855
858
856
854
855
855
854
853
852
855
855
856
856
858
857
858
857
853
852
848
848
846
848
854
856
858
859
857
854
853
852
854
852
852
851
856
859
860
860
859
858
858
857
860
858
859
858
859
858
860
861
862
866
866
865
867
867
868
867
868
868
868
868
867
862
863
861
861
860
860
866
868
871
877
877
874
870
864
861
854
851
851
854
854
855
858
857
854
853
852
853
849
849
848
847
847
850
858
870
887
904
917
926
929
929
922
901
876
852
839
841
873
915
967
1019
1070
1116
1162
1206
1243
1275
1293
1300
1295
1279
1255
1222
1181
1136
1090
1046
1004
960
916
872
837
813
799
796
798
803
808
814
818
825
829
830
832
831
828
827
823
823
825
825
827
829
831
830
828
828
826
824
824
824
824
825
826
828
830
828
828
825
826
824
821
820
820
821
823
822
823
823
822
822
820
817
816
814
813
815
814
815
818
817
816
814
813
809
808
806
805
806
804
803
805
805
804
803
802
801
799
796
796
796
797
798
799
796
796
795
793
790
790
791
791
794
795
798
803
805
806
807
809
811
812
814
817
821
824
828
833
837
839
839
842
843
846
848
849
853
858
861
862
864
867
868
867
864
865
865
863
863
863
863
863
863
861
858
855
853
848
844
842
842
840
841
840
841
837
836
832
828
824
826
825
825
825
826
828
827
825
824
824
823
825
822
822
826
825
828
830
832
831
829
830
832
830
832
834
833
836
839
837
837
839
839
839
838
840
840
841
841
843
843
845
845
843
843
843
841
843
841
843
844
846
846
850
848
848
847
845
845
846
842
842
846
848
847
849
850
850
848
847
846
845
846
848
850
850
850
852
850
851
847
848
847
847
847
849
850
848
848
851
852
851
850
850
848
848
847
847
851
849
850
854
851
851
852
850
849
848
847
847
848
850
852
854
854
852
851
851
850
850
849
849
850
852
852
854
854
853
852
848
849
850
848
847
849
850
852
852
853
852
851
850
849
849
848
848
852
851
851
853
853
852
852
849
848
846
847
845
848
850
852
854
853
850
850
849
849
847
848
848
850
852
852
853
853
852
849
846
845
845
846
845
848
851
854
856
854
855
852
852
853
851
848
847
851
852
854
858
858
862
862
861
861
862
863
863
864
862
864
865
862
858
857
856
856
856
855
855
859
864
868
870
869
868
864
862
859
855
849
848
848
847
847
849
848
847
847
846
847
845
845
844
842
842
841
847
856
868
886
901
916
928
934
933
920
893
862
837
824
831
860
903
951
999
1043
1085
1126
1168
1206
1240
1259
1268
1268
1255
1235
1206
1168
1128
1085
1042
1001
958
918
874
840
817
801
796
796
798
806
809
816
820
821
825
823
826
821
823
823
823
823
825
826
827
829
828
827
826
824
824
820
822
822
822
825
826
825
824
824
822
822
820
819
818
817
818
819
821
821
818
818
817
815
813
812
813
814
815
813
813
812
812
810
808
806
805
804
805
806
806
805
807
805
803
799
798
796
792
792
791
789
789
789
790
792
789
787
783
782
781
781
781
783
787
788
789
789
791
790
792
794
795
799
801
806
810
812
816
818
820
823
828
828
834
837
838
841
846
850
855
858
860
862
862
862
864
866
864
866
865
864
867
863
864
862
859
856
855
854
852
852
849
847
848
845
845
841
837
837
834
834
835
834
835
836
837
839
835
833
832
831
832
832
831
831
835
835
837
837
836
837
837
834
836
834
832
835
838
840
843
842
840
842
841
841
842
842
843
842
846
847
848
848
846
844
846
846
844
845
845
846
848
850
850
846
848
847
844
847
847
848
848
848
850
850
851
851
852
848
848
850
849
846
846
848
848
853
855
855
853
852
850
849
849
847
846
851
851
853
857
852
853
850
850
851
849
851
852
851
853
855
857
851
852
851
850
849
850
850
851
851
855
856
856
857
856
855
854
852
852
847
849
849
851
853
854
854
855
854
851
849
850
850
848
850
851
852
855
853
853
852
851
851
852
850
850
848
851
853
855
855
854
852
848
849
848
848
849
849
853
854
855
856
853
851
851
848
847
848
847
850
851
849
851
852
851
852
850
847
848
848
848
850
851
852
856
852
850
848
847
848
847
846
847
849
849
853
855
856
855
855
854
853
854
852
850
852
855
856
861
863
863
865
863
863
862
860
859
859
859
859
860
858
858
857
854
853
856
856
859
863
865
865
866
863
860
856
852
846
841
840
840
841
843
845
847
847
846
845
845
843
841
837
836
836
845
861
878
899
914
923
928
920
899
869
842
824
830
859
905
959
1014
1071
1123
1172
1217
1252
1278
1294
1295
1288
1271
1242
1203
1156
1109
1061
1008
960
912
869
832
807
794
789
790
792
798
801
804
807
811
817
820
823
821
823
819
817
818
815
816
815
816
815
816
818
818
820
821
817
816
815
814
811
813
812
814
813
816
816
815
815
813
813
809
810
808
809
810
814
812
811
812
810
808
802
804
800
804
803
803
803
805
804
802
800
799
797
796
795
794
792
795
795
795
795
792
793
789
787
785
784
782
783
786
785
788
788
789
788
785
785
787
789
790
791
795
797
800
803
805
806
807
809
807
810
812
818
821
826
829
835
838
839
842
843
844
844
848
850
853
855
859
858
859
858
857
856
856
855
854
854
852
854
853
849
848
845
843
839
838
836
832
829
828
831
831
829
826
822
820
817
815
816
815
815
817
818
818
819
816
817
816
815
812
813
815
816
818
819
820
822
822
821
820
819
821
821
820
823
825
825
829
832
828
829
829
828
826
827
827
828
832
833
834
836
836
833
832
832
831
831
832
832
834
834
836
840
838
839
837
834
832
831
834
836
837
839
840
837
838
838
836
835
834
836
834
836
837
839
842
842
844
842
840
841
835
835
834
833
836
839
842
842
843
842
839
838
837
837
834
836
838
838
842
842
844
839
841
840
836
834
838
836
839
839
840
842
842
842
842
841
838
838
837
837
838
840
840
842
842
841
841
840
838
838
838
838
840
839
842
839
838
835
834
834
835
835
837
837
840
842
841
841
841
839
837
838
837
836
836
835
837
838
841
840
840
840
839
837
835
837
835
837
837
838
839
840
840
841
843
840
839
838
839
843
842
846
847
848
849
847
846
844
843
842
842
845
852
854
856
858
858
858
856
854
848
846
845
844
844
844
847
848
850
853
854
855
854
850
851
851
848
844
845
842
840
837
838
834
832
835
834
833
835
838
839
840
835
833
831
829
837
851
870
892
910
925
930
922
898
859
823
800
803
832
881
940
1004
1063
1117
1166
1205
1237
1253
1262
1256
1242
1220
1191
1155
1111
1071
1033
990
947
903
862
828
804
786
783
783
789
799
804
806
811
813
815
814
819
818
817
817
819
819
819
817
815
816
817
816
816
814
816
817
819
820
820
820
815
815
814
814
813
813
816
817
816
817
819
816
814
813
812
811
811
809
810
807
808
809
809
807
806
805
805
802
800
801
802
802
800
802
802
799
799
795
796
792
789
790
790
790
792
791
789
786
786
782
780
780
777
777
777
780
779
782
780
783
783
779
780
779
782
783
787
789
792
796
796
801
801
804
806
808
807
814
819
826
828
831
837
839
839
844
843
844
848
845
852
855
857
861
862
858
858
855
857
857
857
854
854
855
855
854
855
852
848
845
843
840
835
837
837
838
835
836
838
835
834
831
829
828
827
828
829
828
831
834
834
835
835
833
832
831
830
832
835
837
837
837
839
839
839
838
837
835
835
836
835
838
839
843
845
843
844
842
842
842
841
842
842
843
846
848
847
848
844
844
845
844
844
845
844
847
849
849
851
851
850
848
847
846
846
846
846
846
850
849
848
851
851
847
846
845
845
845
847
849
850
850
852
850
849
847
847
846
846
847
847
846
849
851
853
851
849
847
849
847
846
845
846
849
848
849
849
851
850
848
849
849
847
847
846
849
851
852
853
850
852
853
849
847
849
850
852
853
854
854
853
852
853
852
851
849
848
850
849
850
850
855
856
855
851
851
851
850
849
849
849
848
851
851
851
851
849
850
846
849
850
847
849
849
849
852
853
852
853
851
849
849
850
850
850
853
855
855
854
856
853
853
854
853
852
853
855
857
858
860
863
861
860
858
858
856
856
858
859
864
869
872
873
872
870
869
867
864
862
860
861
863
863
864
862
862
861
863
864
865
868
872
874
873
872
872
872
865
862
855
852
848
848
847
850
851
850
852
856
853
853
852
849
846
845
843
845
857
876
893
914
927
933
934
921
897
866
842
831
844
881
929
984
1038
1092
1141
1186
1229
1266
1294
1310
1313
1308
1294
1267
1233
1188
1141
1095
1051
1007
963
920
878
844
821
805
798
797
799
802
803
808
812
815
821
825
830
830
831
829
828
826
821
823
823
825
826
826
828
830
826
827
828
826
824
823
823
822
825
825
826
827
825
823
822
819
822
820
820
822
822
821
823
822
822
822
819
818
817
815
814
815
815
816
817
817
815
813
811
807
804
803
802
806
802
806
805
805
804
803
800
799
796
797
794
794
794
795
798
797
796
799
796
797
793
792
794
799
800
804
807
810
811
814
817
818
818
823
827
830
836
839
845
849
850
854
856
859
859
858
863
866
868
870
872
873
872
872
870
867
862
862
860
858
859
857
855
852
847
848
843
840
837
834
830
832
828
832
831
829
828
828
828
826
822
824
823
824
824
825
829
828
831
832
830
826
827
827
828
828
831
832
833
837
835
838
837
834
836
834
836
836
837
842
843
847
845
843
844
842
839
841
841
841
843
843
846
846
848
847
846
845
843
842
843
845
846
847
848
849
850
849
847
846
844
841
845
843
847
849
852
849
849
850
849
848
845
846
846
846
848
850
854
851
850
850
848
851
847
845
846
846
848
851
851
851
850
851
850
849
847
848
846
845
846
850
853
856
853
855
853
851
850
849
847
850
850
850
849
851
851
854
853
846
850
847
848
850
852
854
854
854
853
853
851
850
846
849
846
848
849
849
851
852
855
853
852
850
847
850
848
850
849
851
854
854
855
855
854
852
851
848
850
851
851
852
854
855
855
855
855
853
852
847
848
848
850
853
855
856
857
856
857
858
856
853
853
855
856
860
863
867
868
869
869
867
867
866
863
862
861
862
862
865
863
864
864
865
867
867
867
870
870
869
867
866
862
859
857
854
851
849
850
850
850
852
854
853
855
853
855
851
850
846
844
844
846
856
871
893
914
931
942
944
938
912
878
842
824
834
875
937
1008
1077
1138
1187
1223
1249
1265
1270
1264
1250
1229
1198
1158
1116
1064
1021
973
930
888
849
823
809
801
805
810
813
817
822
826
828
829
831
831
836
836
836
834
834
835
835
833
832
834
831
835
834
835
837
836
835
834
832
830
828
828
830
830
830
834
832
833
828
828
827
827
825
824
824
825
828
827
826
822
825
823
821
818
818
818
818
818
819
818
818
816
815
814
811
810
809
807
806
807
806
805
803
804
803
802
798
795
796
797
796
795
797
798
799
797
796
796
794
795
796
797
799
801
804
805
809
810
811
812
810
811
815
817
822
830
832
835
840
841
844
848
849
851
852
853
860
862
867
868
872
874
874
875
872
873
869
871
872
872
872
871
871
870
869
865
864
860
857
853
855
854
854
851
850
851
849
847
846
844
842
844
846
846
848
848
848
846
844
843
843
842
844
840
843
845
849
852
854
852
849
846
847
847
849
850
850
852
854
856
858
855
856
855
854
854
854
855
856
856
860
859
860
860
860
858
860
855
855
855
856
858
859
860
858
858
860
858
855
854
857
855
856
859
859
861
862
861
862
859
856
855
854
856
857
860
861
862
863
863
864
862
858
858
854
856
855
860
859
861
862
863
863
862
860
858
859
858
858
859
861
863
863
863
862
861
859
858
858
857
858
859
860
861
864
863
864
859
860
858
857
857
859
860
861
861
862
860
861
862
862
859
859
858
859
859
859
862
862
861
861
860
859
857
859
860
862
861
860
861
865
863
862
863
862
861
860
859
859
862
862
862
864
864
862
861
859
860
860
861
860
859
860
860
861
861
863
863
859
859
857
857
860
863
862
862
866
865
864
861
860
859
861
861
862
864
868
870
871
872
866
866
866
867
868
868
872
874
877
879
878
878
874
872
869
868
867
864
868
869
870
872
877
880
882
886
883
880
877
869
868
866
863
862
861
861
861
859
857
858
856
858
858
858
859
859
857
856
853
855
861
875
892
910
925
938
942
937
920
891
864
850
862
899
958
1027
1098
1167
1230
1278
1312
1327
1326
1312
1290
1254
1210
1161
1112
1064
1020
975
928
886
850
822
804
798
798
800
803
810
817
822
829
830
830
832
831
833
832
830
828
829
830
832
833
832
829
831
829
830
829
829
829
831
831
831
832
834
831
831
830
830
827
829
830
829
828
829
830
827
828
826
824
822
822
822
821
822
822
822
821
823
821
818
818
815
814
814
813
812
812
814
813
811
810
808
806
805
801
803
803
803
803
805
803
803
802
802
798
796
796
797
798
799
801
803
805
806
807
805
806
807
810
812
815
820
824
829
833
832
833
837
839
839
839
844
850
854
855
859
864
862
863
864
864
865
868
868
865
867
872
873
873
870
867
864
860
855
852
850
847
847
848
843
841
840
838
837
834
830
827
827
826
827
827
827
827
827
823
825
823
824
825
827
827
829
830
831
832
833
833
834
834
833
831
832
836
838
838
839
841
841
842
842
841
839
838
837
841
844
847
846
848
849
849
846
844
842
843
846
843
846
847
852
851
850
847
847
846
846
845
843
848
849
850
852
852
851
852
850
850
850
850
850
851
851
851
855
855
854
853
850
851
850
851
851
850
851
852
851
852
853
855
855
852
849
852
850
852
853
854
854
857
855
856
853
854
853
851
851
852
852
854
857
856
855
856
854
856
855
853
853
855
857
858
858
861
860
858
856
856
854
856
856
857
856
857
856
856
857
858
859
858
856
857
856
855
857
858
860
860
859
857
858
857
856
855
857
860
858
859
862
859
860
856
859
857
857
856
859
858
859
860
858
862
862
861
862
860
860
859
860
860
864
865
867
870
869
866
864
862
860
862
865
866
872
876
878
880
877
874
870
869
867
866
864
868
868
869
871
873
877
878
877
876
874
871
872
869
866
864
862
863
861
858
854
852
855
856
855
854
857
858
860
861
860
858
854
850
844
848
854
867
885
905
926
941
949
949
941
924
893
857
831
823
839
874
923
976
1027
1075
1121
1161
1194
1226
1250
1262
1263
1256
1242
1214
1176
1126
1079
1033
984
936
892
858
832
815
809
812
816
817
822
823
826
828
829
829
834
836
841
842
841
841
841
839
838
834
832
832
834
835
835
838
836
834
835
835
832
832
831
833
832
835
833
838
836
835
834
832
832
831
831
830
828
832
833
834
833
832
829
827
825
825
826
825
825
827
825
825
824
824
823
819
816
813
815
815
815
817
815
815
814
809
811
808
804
803
800
801
800
802
805
804
804
804
802
800
798
796
798
796
799
802
801
804
803
804
803
804
806
808
811
807
810
814
818
826
826
830
832
835
838
839
840
845
849
853
859
863
865
866
868
868
870
870
873
871
875
877
877
877
877
877
873
872
870
868
867
865
868
864
861
862
859
856
854
851
853
849
846
845
844
848
848
851
848
847
845
843
840
840
844
842
847
847
847
851
852
851
850
848
850
849
849
850
850
851
854
855
857
856
855
853
853
851
853
852
854
855
857
859
859
857
859
857
857
856
855
854
855
856
858
857
860
858
859
856
854
853
854
856
855
858
860
863
861
859
859
856
858
857
857
856
858
859
862
863
862
861
861
859
858
857
856
856
858
856
858
860
863
862
862
857
856
859
856
853
854
862
860
863
864
861
861
857
857
857
856
857
859
858
863
864
863
862
862
860
860
859
858
857
859
862
862
863
863
863
861
861
859
860
858
860
861
860
865
864
860
863
863
858
860
858
856
856
860
860
861
863
862
860
859
862
858
858
858
860
860
861
863
865
865
865
865
863
861
861
859
859
859
861
863
863
865
865
861
861
859
859
860
858
859
863
864
866
866
866
865
864
863
862
863
860
864
867
868
871
870
869
864
863
863
865
870
871
872
876
877
880
878
876
872
868
868
865
864
865
864
866
870
872
873
877
880
879
879
876
872
871
868
863
862
862
860
858
857
857
855
853
855
854
856
857
856
858
857
853
848
845
853
862
879
902
918
932
941
942
929
902
872
845
833
844
881
929
989
1048
1106
1161
1209
1253
1287
1312
1321
1318
1305
1279
1242
1197
1147
1097
1048
1003
955
907
865
830
804
793
791
794
803
809
815
819
822
825
825
825
826
827
827
828
827
827
826
827
828
826
824
824
824
822
825
825
826
829
828
829
828
826
825
822
823
823
824
824
825
826
826
825
824
823
822
819
819
819
819
820
819
819
820
819
818
812
808
810
811
810
811
810
809
809
811
810
808
806
800
800
799
799
801
802
801
801
801
799
795
795
793
795
794
795
797
799
800
802
806
807
806
807
808
808
810
813
819
823
828
832
834
836
840
839
844
848
846
850
852
855
861
862
867
868
866
866
867
867
865
864
866
865
865
864
863
860
858
852
852
849
841
842
840
840
836
837
832
833
829
830
826
824
821
824
823
825
824
827
829
827
825
825
826
824
824
825
827
828
826
829
830
832
833
834
834
833
832
834
834
835
838
838
839
837
839
838
840
836
837
840
839
842
843
846
844
844
845
843
843
843
842
842
846
848
848
849
849
847
848
844
844
843
843
843
845
844
847
848
852
849
848
847
847
847
847
848
847
850
852
852
854
853
853
851
847
849
849
851
851
852
851
855
857
855
852
852
851
849
849
849
850
852
853
854
854
853
854
851
851
850
851
852
851
852
854
856
858
857
859
856
854
853
853
852
853
857
857
858
857
858
857
857
855
853
853
852
855
853
856
856
856
858
857
856
855
856
855
852
855
856
859
860
859
859
858
858
856
855
853
852
854
855
858
857
857
858
860
858
855
855
855
857
855
858
862
862
863
863
863
861
859
857
857
856
856
859
859
862
861
862
861
862
862
862
863
861
863
863
864
865
864
865
864
867
870
871
872
869
874
874
874
873
874
870
864
867
864
865
865
866
870
872
876
878
878
875
868
865
860
858
854
852
853
853
856
857
859
859
859
856
856
855
854
852
850
849
852
863
879
899
916
934
945
946
938
914
876
841
822
826
855
905
958
1019
1074
1126
1169
1204
1232
1250
1257
1252
1241
1225
1198
1163
1121
1080
1039
995
952
909
866
837
818
807
807
807
813
822
828
835
837
838
841
841
841
840
839
834
836
837
834
835
837
836
836
838
842
842
840
839
838
836
836
834
835
837
839
839
841
838
837
835
832
831
831
831
830
831
831
833
832
832
828
827
826
825
823
823
824
824
825
825
824
825
823
819
818
817
816
814
814
813
811
813
811
810
807
804
803
800
799
799
799
798
799
797
795
796
796
796
794
793
794
794
798
795
801
803
803
808
809
810
811
812
816
819
823
828
829
832
836
837
840
843
845
846
850
855
860
862
865
867
872
871
871
872
870
868
868
869
869
870
869
868
868
868
864
861
859
856
854
854
850
851
852
851
849
845
844
842
840
840
836
838
837
838
840
840
840
838
838
838
836
836
833
836
838
841
839
843
842
844
844
841
840
839
839
840
843
844
844
845
847
845
847
846
846
843
843
845
846
849
850
849
851
850
850
846
851
848
849
849
848
850
851
854
855
855
853
851
851
850
849
851
851
852
854
856
856
856
856
855
852
851
850
851
852
853
852
857
857
856
854
855
853
851
851
851
853
853
853
856
857
856
856
854
853
853
850
852
853
855
857
856
857
855
853
853
854
851
849
851
852
855
854
856
857
858
857
856
855
850
852
851
853
854
857
860
860
858
859
855
857
855
854
853
854
856
858
855
859
858
857
853
853
853
852
850
854
856
854
858
860
859
859
856
853
854
853
851
853
856
856
859
862
860
860
858
857
857
854
856
854
856
857
858
859
857
856
853
857
856
857
856
858
857
858
860
861
862
863
862
860
858
858
857
859
862
867
869
871
873
874
871
869
871
869
868
867
866
864
863
866
864
861
862
865
867
870
874
874
874
874
873
869
866
858
855
852
850
848
850
848
850
852
854
855
854
853
849
847
843
841
846
855
874
891
911
927
936
937
929
907
882
852
832
832
856
902
955
1012
1066
1115
1162
1203
1241
1274
1300
1315
1319
1308
1293
1267
1228
1180
1131
1087
1046
1006
965
921
880
844
818
800
792
791
791
795
799
802
807
813
817
822
824
825
823
822
819
816
816
815
817
817
819
820
819
823
820
819
818
818
816
817
815
817
816
818
817
820
822
820
817
818
815
812
814
815
815
815
817
818
817
818
816
812
812
809
810
810
810
811
812
812
810
808
808
806
806
803
799
800
801
802
801
802
801
800
798
793
791
791
790
791
791
790
791
790
789
789
787
785
781
783
783
783
787
788
790
793
793
792
794
796
795
798
798
803
808
811
814
820
823
826
825
827
828
830
834
837
841
846
849
852
852
854
854
855
854
856
857
857
857
860
859
863
861
858
856
852
849
848
846
843
845
841
841
840
836
834
830
826
822
824
821
821
823
821
822
822
819
819
816
817
816
816
815
817
819
819
820
824
823
820
822
822
823
820
822
825
826
828
830
831
829
831
829
830
827
828
830
831
832
832
833
836
837
837
835
833
830
830
835
839
836
841
842
842
842
844
842
840
837
837
838
837
840
840
841
844
844
843
840
839
839
839
839
840
843
843
845
846
846
845
842
839
838
840
839
842
844
844
845
847
844
844
843
844
841
841
841
840
842
844
846
848
846
846
845
845
842
840
841
842
847
849
849
851
849
851
850
847
847
846
845
845
848
852
852
852
854
850
849
849
849
846
846
847
848
852
853
853
852
850
850
847
848
846
847
848
849
850
853
852
852
853
852
850
850
846
847
850
852
853
854
854
853
853
852
848
849
846
846
847
850
852
855
856
856
855
856
855
852
850
854
854
855
853
855
857
857
856
856
856
854
852
854
855
857
859
857
858
860
860
861
863
863
866
866
869
868
868
869
866
865
864
861
858
858
856
858
859
864
865
869
874
873
873
869
863
855
851
850
849
847
849
849
850
852
850
849
846
845
844
845
845
842
842
849
857
875
896
914
931
936
937
921
891
855
824
815
827
862
912
967
1022
1072
1119
1162
1201
1229
1248
1256
1251
1242
1223
1196
1159
1116
1072
1032
989
943
903
864
836
817
806
801
800
801
810
815
819
825
826
830
833
834
837
832
831
830
828
829
828
828
828
832
834
833
833
831
828
826
826
826
827
825
828
831
829
831
830
829
823
821
823
822
822
823
826
827
826
824
823
821
819
816
817
816
815
816
818
818
819
819
816
815
812
810
810
809
806
807
806
805
806
805
805
803
801
797
796
794
792
793
794
795
795
793
793
791
789
787
789
787
787
789
793
795
800
804
805
805
809
808
809
811
815
819
824
830
834
838
841
845
846
849
849
853
855
859
863
865
868
870
870
868
865
864
865
866
865
864
865
865
864
862
858
854
853
848
845
842
841
841
842
844
842
842
838
838
836
832
831
833
833
833
833
835
835
836
834
831
830
829
831
827
831
831
834
835
838
839
838
837
836
836
837
836
836
840
841
844
843
840
838
841
841
840
841
842
843
842
843
845
846
847
847
844
843
841
842
842
843
841
841
846
849
849
848
844
843
843
845
845
845
847
847
848
850
847
847
845
845
844
843
844
847
849
850
850
851
847
848
848
847
846
846
846
843
846
847
849
852
850
848
847
847
844
845
843
847
847
848
850
850
848
849
846
846
844
845
845
846
849
847
849
850
850
849
848
845
843
844
843
845
846
847
849
852
851
852
850
848
845
845
846
847
848
848
850
853
853
852
851
849
846
846
845
848
848
850
851
852
850
849
849
849
850
847
846
849
849
850
851
854
851
849
848
847
847
849
847
847
849
847
849
850
851
852
850
849
848
848
849
849
850
852
851
853
855
855
853
853
851
851
852
853
852
854
855
858
860
862
862
860
859
859
857
859
865
865
866
864
861
858
856
856
854
853
853
855
859
863
870
870
869
869
865
861
858
852
851
847
845
845
845
846
845
844
845
843
841
842
843
841
840
839
838
836
841
846
857
876
891
905
917
926
927
913
890
860
838
834
857
897
952
1013
1070
1126
1180
1228
1265
1296
1311
1310
1295
1271
1233
1186
1133
1082
1035
983
932
886
843
811
790
780
777
781
786
794
801
806
811
815
818
818
817
814
812
811
810
813
813
813
815
815
816
814
814
812
812
809
808
809
811
809
811
813
813
814
812
810
807
806
805
805
808
809
811
813
811
811
807
807
804
800
799
799
797
800
800
801
798
798
796
796
792
791
788
790
790
789
789
789
788
787
786
784
781
779
779
778
778
777
778
779
778
779
776
775
775
774
776
779
777
781
784
786
788
790
791
793
793
797
801
803
808
811
816
821
824
826
829
830
831
833
835
837
840
847
850
853
854
854
854
853
851
850
850
849
849
849
849
847
848
844
841
836
834
828
828
825
823
822
823
824
822
820
819
816
814
812
810
809
810
811
812
813
813
813
810
809
812
812
812
812
814
816
816
819
818
820
819
821
818
819
818
820
823
824
826
826
827
826
825
825
824
822
821
824
823
828
830
831
830
831
830
830
827
827
827
829
833
832
835
835
836
835
834
833
831
831
833
834
834
834
833
837
835
837
837
833
831
831
833
833
834
837
837
839
838
838
836
837
837
834
837
835
836
837
839
840
839
839
835
835
832
832
834
835
836
836
838
840
841
839
838
834
834
833
833
834
835
839
840
842
840
840
837
835
835
835
837
837
837
840
840
844
842
842
839
839
838
838
838
838
836
842
842
844
846
843
843
839
838
838
838
836
837
837
841
841
840
839
841
837
837
836
837
840
840
842
843
843
839
841
837
837
838
834
836
836
836
839
841
842
837
841
840
839
839
838
835
837
838
841
843
843
843
843
843
843
841
842
842
843
843
843
847
847
849
850
851
850
851
851
850
852
850
852
852
853
850
849
845
845
849
847
849
854
855
859
858
858
854
852
848
841
838
836
832
833
835
835
838
840
840
839
835
835
833
831
827
829
839
855
876
897
915
923
922
904
878
840
818
813
837
885
945
1007
1066
1123
1169
1208
1232
1246
1248
1240
1230
1205
1177
1140
1099
1058
1019
974
928
884
847
816
800
789
791
792
797
801
801
804
807
809
809
812
815
814
817
816
818
816
814
813
812
812
810
812
813
814
813
816
814
811
811
811
810
810
809
809
810
811
812
815
814
810
811
808
810
809
808
807
807
809
809
810
807
806
806
802
803
801
799
798
799
801
802
803
801
799
796
796
795
791
792
791
791
790
792
793
791
792
789
786
784
782
783
783
783
784
785
786
786
786
782
781
783
783
784
783
789
790
792
795
797
798
798
800
802
802
804
809
811
818
822
826
831
832
832
836
833
836
837
841
847
850
853
856
857
857
856
856
854
852
853
853
851
852
850
853
850
847
843
840
838
833
831
829
828
827
827
826
825
821
818
816
817
811
811
809
811
812
813
813
813
812
814
811
811
812
809
810
815
817
819
821
821
819
820
819
817
820
818
821
824
824
825
826
828
831
830
829
828
827
826
828
829
830
833
834
835
833
835
832
830
830
830
832
830
833
832
836
839
838
837
837
833
835
833
834
833
836
836
839
838
839
838
834
832
834
832
834
836
837
839
839
838
839
837
835
834
832
833
833
835
836
837
839
839
840
841
837
836
836
835
834
837
838
839
840
841
835
837
837
836
833
835
835
834
835
835
841
841
840
837
839
834
834
834
834
835
836
837
837
835
839
839
835
834
832
832
833
834
834
837
840
839
839
838
839
835
833
835
835
835
837
838
840
839
839
840
839
835
835
837
833
834
836
838
839
841
841
839
839
838
835
835
832
835
832
837
839
843
843
841
841
840
841
844
842
844
843
840
844
844
848
851
852
852
855
853
851
853
854
850
853
848
847
844
842
840
844
842
844
848
849
855
856
857
858
856
848
844
840
836
834
835
834
835
835
837
837
833
834
833
832
830
832
830
828
826
827
830
838
853
873
891
903
914
916
909
881
850
824
818
847
893
954
1019
1083
1141
1189
1229
1255
1268
1267
1253
1226
1188
1139
1093
1042
994
949
905
864
830
807
790
782
781
783
789
791
793
798
802
803
807
811
811
810
809
807
805
805
803
804
806
807
809
809
809
808
808
808
807
806
804
806
807
806
809
809
810
808
809
807
805
804
803
803
802
803
804
805
804
802
799
799
795
795
794
793
796
793
794
793
791
791
791
789
785
785
781
782
783
784
783
785
782
780
779
777
777
770
773
771
770
769
771
770
771
770
769
771
771
772
771
774
774
778
780
783
784
783
787
788
787
791
793
799
803
808
811
815
813
816
819
823
823
827
829
834
838
840
846
847
850
850
850
850
851
851
851
851
851
851
850
849
846
842
840
838
836
834
828
828
828
828
828
827
824
821
821
818
820
820
818
820
818
820
821
820
822
823
822
818
815
819
819
817
817
819
821
824
827
826
825
825
827
825
827
829
827
828
828
834
834
833
831
833
830
829
830
829
833
835
834
834
835
835
834
834
830
835
831
836
835
835
839
843
843
843
842
839
839
838
837
837
838
839
840
843
842
842
841
841
839
838
840
839
838
839
842
844
847
844
844
841
840
841
842
843
841
847
843
846
846
846
844
843
843
842
842
841
843
846
847
847
849
846
843
844
842
840
841
841
844
845
847
847
848
846
846
845
841
842
842
843
845
845
847
850
849
848
847
843
842
843
843
843
845
847
849
851
849
849
848
844
846
846
844
844
844
845
848
850
850
849
848
846
845
844
843
844
848
848
852
852
850
852
849
848
847
846
843
845
847
849
850
851
850
852
850
850
846
846
846
846
846
848
848
854
853
854
853
852
851
853
852
854
854
857
858
859
857
858
861
861
861
860
861
862
864
865
865
865
864
861
859
859
856
856
857
856
860
865
865
871
874
873
872
865
866
862
858
855
852
850
850
850
850
850
850
848
847
846
848
848
848
849
848
848
846
849
854
866
880
894
911
922
932
933
924
905
877
850
840
847
875
924
982
1044
1108
1164
1216
1259
1287
1301
1297
1282
1255
1218
1173
1125
1078
1030
982
935
893
851
823
802
795
795
796
804
811
819
823
827
831
831
831
828
832
827
825
826
826
826
831
832
833
834
833
830
828
830
829
831
831
832
830
833
833
828
831
830
828
829
827
827
829
829
832
830
830
831
831
828
826
825
827
824
826
828
827
827
825
825
824
821
821
818
815
816
815
816
816
814
815
811
809
809
809
805
804
804
803
807
808
810
806
807
804
808
807
808
808
804
810
812
815
818
821
820
823
826
829
831
830
831
838
841
846
851
851
856
855
859
861
863
863
869
871
876
879
881
880
882
883
884
883
885
886
884
885
887
885
887
886
883
879
874
873
871
867
864
863
861
861
861
860
856
855
856
855
852
851
851
851
851
850
854
855
856
854
854
853
855
854
856
852
855
855
859
862
861
859
860
862
862
862
863
863
867
869
871
873
872
869
869
868
868
866
867
868
868
870
874
875
875
875
876
874
873
873
872
874
876
877
880
881
877
879
879
879
879
881
880
882
882
884
884
885
886
886
885
886
885
883
884
883
883
885
889
889
888
887
886
886
886
885
887
886
888
889
887
889
889
888
885
886
883
883
884
887
891
892
892
892
892
891
892
890
889
888
890
890
890
892
895
895
893
893
893
892
892
891
892
893
896
895
895
897
898
896
894
893
893
890
891
891
894
895
896
898
898
897
896
894
894
895
894
895
897
896
897
899
896
898
898
897
896
897
898
899
898
899
898
901
900
898
899
899
896
896
896
897
902
902
904
903
903
902
900
900
897
897
901
899
901
901
904
904
905
905
905
904
903
904
905
906
910
907
911
912
909
911
911
913
913
915
917
918
919
917
917
917
914
914
910
908
905
906
908
913
918
919
921
920
920
914
911
907
902
899
899
899
900
901
902
902
901
902
900
899
897
895
894
894
893
896
902
914
930
948
964
979
987
983
970
946
916
885
871
878
907
952
1004
1057
1108
1156
1199
1237
1266
1280
1283
1275
1252
1217
1174
1124
1078
1029
981
941
905
877
865
857
856
858
863
864
868
871
874
876
880
884
886
886
886
883
881
880
879
878
882
882
881
882
883
883
882
883
880
878
879
877
879
881
881
882
884
885
883
882
880
877
875
875
876
876
876
877
877
876
877
875
874
873
871
868
868
868
869
871
871
869
870
868
867
865
862
859
859
860
860
861
861
859
859
859
855
853
849
850
846
846
848
850
852
849
849
849
847
846
844
844
845
845
845
849
852
853
853
854
855
853
855
855
859
859
864
866
871
874
872
877
880
880
882
884
889
892
893
897
900
906
905
908
910
911
911
914
913
916
917
919
920
920
923
921
920
917
913
912
909
905
905
902
902
902
900
897
893
892
890
887
883
881
883
883
883
885
882
881
881
880
877
874
875
874
876
878
879
880
880
880
880
880
877
877
877
880
879
881
883
884
886
884
884
885
883
885
886
887
889
891
890
893
891
892
891
888
890
889
889
888
889
890
894
895
896
895
894
893
891
890
890
891
892
894
894
897
897
896
893
892
893
893
891
893
895
895
899
897
897
896
895
891
889
892
893
895
896
897
898
898
898
897
895
894
893
892
893
893
894
896
897
898
898
899
894
896
894
893
893
895
897
900
899
899
899
897
897
894
894
891
892
894
894
896
895
897
899
898
896
895
893
894
895
895
897
896
899
899
897
897
896
893
892
891
890
893
895
896
896
898
897
895
893
893
893
894
894
894
895
894
896
898
899
897
895
894
892
892
892
894
895
896
896
895
897
895
894
891
891
891
893
895
894
897
898
902
902
898
896
895
894
895
899
900
903
906
908
910
910
907
905
903
896
895
894
893
894
896
896
900
900
901
904
902
901
901
900
899
898
894
893
891
886
884
883
880
880
880
882
882
885
885
885
884
883
877
875
876
881
893
908
926
945
958
966
968
959
940
910
884
865
866
889
929
981
1036
1091
1140
1184
1224
1255
1280
1295
1299
1294
1287
1267
1238
1204
1160
1117
1072
1030
987
942
906
870
845
830
822
821
828
831
837
839
846
846
845
848
850
850
849
845
846
847
847
846
845
843
843
842
844
845
845
845
847
847
846
841
843
841
840
839
839
839
840
841
840
840
840
837
836
837
835
834
834
833
835
835
834
831
830
830
827
826
825
824
825
827
828
825
822
822
821
818
819
818
816
814
813
814
812
812
812
809
810
807
804
804
803
801
803
803
803
801
803
803
804
802
801
801
803
803
806
804
806
809
814
815
817
818
822
822
824
826
828
832
840
844
847
850
852
854
856
858
860
861
865
869
872
876
877
879
879
880
879
876
878
875
877
878
876
874
874
871
871
867
863
860
856
853
852
851
852
852
851
847
847
845
841
840
838
837
838
838
841
844
843
842
844
841
840
839
839
839
839
840
843
846
846
849
850
848
848
847
847
848
848
850
852
854
855
855
853
854
855
853
850
850
850
851
853
854
857
856
856
855
854
853
853
852
855
856
858
859
858
860
858
857
857
856
856
855
857
857
857
857
857
859
858
857
857
855
855
856
856
856
857
857
859
860
860
859
858
855
853
855
856
857
857
860
860
861
861
858
858
856
856
856
858
858
858
859
862
859
862
859
859
858
854
854
856
857
856
859
860
857
860
859
859
855
855
856
857
857
858
861
860
860
860
859
858
855
854
855
855
858
857
855
858
858
858
857
856
856
856
855
857
858
854
856
857
855
856
856
852
853
854
853
855
853
854
857
859
857
857
856
855
855
853
854
855
854
855
855
858
859
858
856
857
852
852
851
852
853
855
858
859
859
855
856
854
855
853
853
852
856
856
859
858
859
858
860
857
858
855
856
854
855
860
862
860
861
861
861
866
868
869
868
868
870
872
872
871
868
866
862
859
860
860
859
860
865
868
874
879
877
876
872
868
867
862
857
856
854
855
857
853
851
849
848
847
847
846
849
848
849
849
849
850
846
847
849
855
869
884
902
916
928
935
929
914
887
861
842
840
856
892
938
985
1035
1081
1128
1176
1219
1252
1278
1290
1283
1264
1232
1189
1139
1092
1043
994
945
902
859
827
805
795
789
793
799
805
811
818
822
823
825
824
824
820
821
822
822
822
823
824
823
826
824
821
819
820
819
820
821
821
824
825
824
823
821
819
820
820
817
818
819
819
819
819
821
820
818
815
816
814
808
810
809
809
814
814
814
809
810
808
807
805
803
802
802
803
804
805
801
801
799
799
795
793
792
793
792
793
793
794
791
790
791
788
788
785
786
784
786
786
789
790
793
795
793
791
794
797
797
800
803
806
811
815
814
819
818
825
824
827
827
832
835
838
845
846
849
849
849
851
853
855
855
856
858
860
861
863
861
861
859
856
850
848
847
846
844
841
841
838
836
835
831
828
826
825
823
821
821
821
822
822
822
820
818
816
815
813
812
813
814
819
820
819
822
821
821
821
819
818
820
821
824
826
827
828
828
827
827
825
824
824
826
829
831
833
834
835
835
835
833
834
831
832
831
831
833
834
835
837
837
837
836
836
835
837
834
835
833
835
839
840
839
840
838
835
835
834
832
834
838
840
840
842
841
840
839
837
834
834
832
834
837
838
839
840
843
840
840
839
837
836
835
836
838
839
842
843
841
840
840
836
836
836
835
834
837
838
840
840
839
841
837
836
836
835
835
835
837
839
842
843
843
840
840
838
838
837
837
837
838
841
841
842
844
843
840
841
838
838
836
837
839
839
841
843
841
838
839
837
837
835
836
836
839
841
842
843
840
840
840
841
840
839
838
840
840
841
843
844
844
843
842
840
836
837
837
837
839
840
841
845
842
843
841
842
840
839
840
839
842
843
843
847
848
849
848
847
847
844
845
846
846
849
853
855
857
855
858
858
855
852
848
847
847
847
849
851
850
849
848
848
850
852
857
858
859
858
858
857
856
851
849
844
841
837
836
834
835
838
843
845
844
843
843
839
837
835
835
832
837
847
862
880
900
913
927
928
922
904
875
841
817
809
824
860
907
962
1012
1061
1109
1152
1189
1216
1232
1234
1223
1203
1165
1120
1073
1026
982
936
895
858
829
809
801
797
799
802
805
808
812
815
814
816
820
821
822
823
820
820
818
816
820
820
819
817
819
818
817
819
821
820
820
818
818
815
816
815
818
819
822
821
820
819
816
817
812
812
811
812
814
813
813
816
815
813
813
809
808
807
805
806
806
808
808
805
806
806
802
799
797
796
794
795
796
795
795
797
794
793
790
788
785
781
779
778
779
782
783
785
782
785
783
780
778
778
779
782
781
787
788
790
790
791
791
790
790
792
791
794
799
804
810
813
816
815
816
819
821
826
826
828
831
835
840
845
847
847
848
846
848
850
848
851
851
856
857
858
858
855
852
849
849
846
842
842
841
840
839
841
834
833
830
826
825
823
821
823
821
822
821
823
821
821
821
818
818
816
814
816
818
817
818
821
821
821
820
818
818
819
819
821
823
825
827
828
830
827
826
825
822
822
824
826
827
829
831
833
832
831
831
829
828
830
828
831
833
833
835
835
835
834
835
835
834
833
833
834
837
835
837
837
837
838
837
833
835
834
835
835
835
836
838
842
836
836
838
837
835
835
834
835
838
839
841
842
840
839
839
837
837
835
836
835
836
838
837
841
843
842
842
839
837
837
837
835
838
840
841
843
843
840
840
839
840
839
838
838
839
842
844
843
842
842
842
841
839
837
838
839
841
841
843
844
843
843
844
842
839
841
841
841
841
843
844
844
846
846
841
841
839
837
837
837
837
840
843
843
842
842
843
838
837
837
836
837
840
841
842
842
840
840
839
842
842
839
840
837
841
841
842
844
844
844
842
839
841
841
840
840
842
844
846
845
846
846
847
847
843
844
843
845
843
845
845
847
850
852
854
856
853
856
855
853
851
852
852
852
853
851
853
850
848
845
849
852
855
858
859
863
862
857
856
852
848
844
842
841
840
839
842
843
843
841
841
839
838
838
836
832
834
833
834
840
851
867
885
900
913
920
921
906
884
855
826
813
820
850
897
948
1005
1060
1113
1162
1203
1234
1253
1256
1246
1222
1191
1147
1103
1056
1010
962
915
871
836
812
796
791
792
793
799
802
804
807
811
813
816
818
819
817
817
812
811
810
809
811
810
814
815
817
817
815
816
814
813
812
808
810
813
812
813
813
813
813
812
811
810
808
807
806
808
808
809
809
808
806
807
806
805
802
800
800
801
800
799
803
802
798
796
794
791
793
789
790
790
789
787
788
787
788
783
782
781
779
779
777
777
779
779
779
779
779
776
777
776
774
777
777
778
781
781
787
787
788
791
792
792
796
797
799
803
806
810
815
817
822
822
823
827
828
830
833
836
841
844
849
851
853
851
853
853
853
853
852
854
857
855
855
855
851
849
844
841
841
838
836
835
835
834
833
833
829
828
826
822
823
821
821
822
823
822
823
826
825
826
823
824
824
822
820
821
822
825
829
828
827
826
826
827
826
825
826
830
830
833
833
832
835
834
833
831
829
828
828
831
831
834
835
836
837
833
835
834
833
833
835
836
837
837
840
841
839
840
836
837
836
836
834
836
841
841
843
841
841
839
839
837
835
837
839
836
839
841
843
841
840
840
839
839
838
836
837
838
840
843
843
842
841
843
840
838
839
840
837
839
837
841
840
841
842
840
838
840
838
840
840
842
842
844
846
843
844
844
843
841
841
840
841
843
844
845
844
844
845
844
842
842
842
840
841
842
840
842
845
846
840
842
841
839
840
841
843
845
844
846
845
846
844
847
844
844
841
843
842
844
844
845
848
844
845
844
843
842
842
840
840
842
843
845
849
848
847
847
845
845
844
842
842
842
847
849
849
848
849
849
848
846
844
843
844
843
845
848
851
851
851
850
849
849
848
847
846
847
850
854
854
856
856
859
861
861
861
860
860
861
861
861
861
859
858
856
854
852
850
849
847
848
854
859
863
862
865
866
865
865
863
858
857
855
853
851
849
849
847
846
846
847
844
842
844
845
848
848
849
848
843
843
842
844
853
866
882
897
910
922
929
925
910
885
857
836
830
846
884
930
985
1040
1092
1143
1186
1226
1257
1281
1293
1289
1282
1263
1238
1202
1161
1115
1071
1025
981
936
894
854
827
806
798
794
798
801
805
808
808
808
811
814
816
818
822
821
822
822
821
820
818
816
815
818
818
818
820
819
821
823
822
821
819
819
815
813
816
816
818
819
818
818
819
817
814
816
813
807
812
813
813
813
814
815
814
812
808
809
807
805
805
804
805
805
805
804
804
802
798
798
795
793
793
794
794
793
794
794
791
789
788
786
785
782
783
784
783
786
787
786
786
788
786
786
787
790
786
791
795
799
804
805
807
808
811
811
812
813
816
823
826
831
831
839
842
843
845
846
848
849
851
854
855
861
861
863
863
862
861
858
854
851
851
849
847
849
848
845
845
842
839
834
831
829
827
825
824
820
823
824
824
823
821
819
819
816
816
817
821
824
824
822
820
821
822
821
819
816
820
823
825
826
825
828
825
829
827
826
826
824
828
828
831
830
832
832
832
832
834
833
833
835
835
835
838
837
839
839
842
842
837
835
835
836
836
836
840
840
840
842
844
843
840
839
840
839
839
841
843
844
845
845
846
845
846
844
842
842
842
843
846
845
848
849
848
845
844
843
844
843
842
845
845
846
848
848
848
847
846
844
842
843
844
844
846
846
846
847
848
849
847
847
846
844
844
847
848
849
850
851
850
848
848
848
848
847
845
847
848
850
850
852
851
850
848
848
847
844
846
848
850
852
853
854
855
853
851
850
848
846
846
847
850
850
851
853
851
851
850
850
846
847
849
847
849
852
852
853
853
852
853
851
852
848
850
850
851
853
852
851
852
851
852
850
850
849
848
848
852
852
853
853
852
852
851
848
846
846
847
850
849
853
853
854
851
851
851
850
848
849
850
851
850
855
857
857
857
856
854
849
851
852
855
858
861
866
867
867
867
865
863
862
857
856
857
857
857
858
859
859
862
864
866
864
865
862
861
858
856
856
855
851
849
849
847
847
847
845
846
848
848
849
851
849
846
843
846
856
871
890
909
925
935
928
907
876
847
836
844
885
938
999
1061
1121
1172
1216
1245
1262
1267
1260
1242
1218
1183
1145
1101
1060
1015
969
922
879
844
819
803
797
797
801
809
816
820
824
827
827
828
828
826
824
823
820
821
820
822
823
824
827
827
825
823
821
821
820
820
820
820
822
822
822
821
822
822
819
817
815
815
814
816
817
819
818
817
816
814
811
810
810
809
809
810
809
808
811
811
809
806
806
804
802
802
801
801
802
801
802
801
799
793
796
792
791
793
793
792
792
792
792
791
789
790
789
789
789
790
792
792
796
795
799
801
801
799
800
798
802
805
810
814
818
821
826
830
828
831
834
835
839
843
844
846
851
855
859
859
860
860
860
861
860
860
861
863
861
860
862
858
857
854
851
847
846
842
842
840
839
839
839
835
835
833
829
828
825
825
824
825
825
826
825
823
824
824
821
821
822
818
818
819
821
823
825
826
825
827
826
827
823
826
828
830
831
835
835
835
835
835
834
832
832
835
834
837
839
840
839
840
838
837
836
837
835
837
838
837
840
844
845
845
846
843
841
838
839
841
842
843
845
847
847
848
849
848
844
843
841
842
846
848
846
848
852
849
848
847
845
847
846
847
847
851
849
851
854
852
851
851
847
847
846
846
847
849
851
851
853
852
852
851
849
846
846
847
847
850
851
854
855
854
853
852
851
848
850
850
850
850
851
854
856
855
854
853
852
850
852
850
851
852
852
853
852
853
854
852
850
847
846
846
846
850
854
851
854
853
853
852
851
849
848
848
849
852
851
853
856
856
852
851
850
849
847
849
850
851
852
853
853
854
854
850
853
850
846
848
847
847
851
851
851
851
851
852
850
849
851
849
849
852
854
855
858
856
854
853
857
857
858
859
860
863
866
867
867
864
863
858
855
851
854
854
856
855
858
862
865
867
867
867
866
863
861
856
852
852
851
850
851
850
848
846
845
842
842
842
845
847
849
850
850
848
846
851
859
875
896
915
930
936
928
907
877
848
831
839
868
919
975
1034
1091
1148
1193
1231
1258
1270
1269
1256
1238
1203
1167
1123
1084
1048
1008
971
932
888
853
825
808
795
798
801
807
812
816
821
825
826
828
825
825
824
822
824
820
825
827
828
828
828
827
824
823
822
819
821
821
821
823
818
820
823
824
821
820
819
814
817
819
819
821
821
823
821
820
817
816
813
812
814
812
812
812
813
813
812
808
810
808
804
803
801
802
803
801
804
803
802
801
798
797
794
790
789
788
787
787
789
789
789
789
785
784
783
782
782
782
783
785
787
788
791
792
792
792
793
793
796
799
803
805
809
813
815
820
824
828
828
831
834
837
841
847
849
851
855
856
856
858
858
858
858
860
860
861
859
860
861
859
855
854
850
847
846
845
845
844
844
843
841
838
837
834
833
831
831
831
831
830
832
833
835
835
834
831
830
829
830
828
833
832
835
836
835
835
836
836
833
834
832
833
836
838
840
842
840
841
842
840
836
836
839
839
841
842
845
846
846
845
843
844
841
843
841
842
844
844
845
847
847
845
846
845
842
843
842
843
845
844
847
848
846
846
844
844
843
843
841
843
845
847
849
851
851
850
848
849
847
848
847
847
847
847
849
850
847
849
844
843
843
844
843
847
845
846
845
848
847
847
846
843
846
844
844
845
847
847
850
850
850
850
851
848
846
847
846
848
848
847
850
850
851
850
848
846
845
845
844
846
846
847
850
851
851
850
849
847
847
848
847
849
847
848
847
851
848
849
846
845
841
843
846
846
846
849
849
851
849
850
849
846
846
843
845
843
845
847
851
850
850
851
848
848
847
844
845
846
847
849
849
850
850
847
846
843
843
844
843
842
847
849
849
851
851
850
849
846
849
847
851
850
852
854
857
856
856
854
852
850
851
851
856
855
857
858
861
864
864
862
861
858
856
854
851
852
851
853
856
858
859
861
863
863
864
864
862
862
858
858
858
853
853
849
846
844
842
841
842
841
842
841
843
849
846
846
842
839
837
842
851
868
886
903
917
923
923
912
887
863
840
830
844
876
923
975
1027
1077
1124
1165
1202
1239
1266
1281
1287
1287
1277
1261
1240
1208
1164
1118
1074
1032
989
948
903
864
833
807
795
789
790
792
795
798
804
807
809
811
817
817
820
820
819
818
815
813
812
811
813
811
813
817
817
818
819
817
814
813
813
813
811
813
815
816
815
816
815
813
812
811
809
808
809
806
808
810
809
807
808
807
806
807
803
800
800
800
799
801
803
800
801
801
798
797
795
796
796
794
794
794
792
793
794
790
786
783
781
779
779
779
779
780
785
786
787
784
786
786
785
787
787
791
793
796
798
801
801
803
804
807
809
811
815
819
820
825
830
835
834
837
843
843
843
847
849
851
852
855
856
858
858
854
854
853
848
848
847
844
845
844
843
840
841
838
835
832
828
827
823
824
821
820
819
819
821
818
815
817
815
814
814
814
816
815
817
819
823
821
822
820
819
821
820
818
824
824
827
829
830
831
830
829
827
830
831
831
830
832
834
835
835
836
835
836
835
833
831
830
833
833
835
840
837
839
839
837
838
838
836
839
839
841
842
845
844
843
840
841
839
841
839
840
841
843
844
846
845
846
847
845
842
844
843
842
845
844
847
848
848
847
845
846
846
845
844
846
847
848
850
850
852
850
849
849
847
846
845
843
846
850
849
852
851
851
848
848
846
847
847
847
848
847
850
854
852
851
849
850
846
850
849
848
851
854
854
855
854
851
853
851
852
851
851
854
855
854
855
856
855
854
853
852
854
853
855
852
856
857
856
859
858
858
855
857
855
855
854
854
854
856
860
859
859
858
859
857
855
857
855
854
855
856
857
858
859
858
855
855
854
855
855
855
857
859
859
861
862
858
857
856
858
857
858
858
858
862
864
867
867
866
863
863
863
863
864
867
871
875
874
878
876
876
873
869
867
865
865
865
866
866
868
871
873
874
879
877
875
874
872
870
869
867
867
865
863
861
857
856
852
853
855
857
857
858
859
859
856
855
863
870
887
904
923
938
946
943
927
896
862
840
840
858
899
950
1004
1056
1104
1146
1183
1214
1234
1245
1246
1239
1222
1200
1167
1128
1088
1048
1007
964
920
881
850
828
816
813
817
821
829
834
840
844
846
848
847
843
844
843
841
842
843
843
846
849
847
845
847
845
844
841
841
842
843
845
845
846
845
844
844
841
841
839
840
838
839
838
839
840
839
839
837
835
830
832
832
831
832
833
834
835
833
834
831
830
829
825
825
824
822
825
826
824
823
825
820
816
815
814
816
814
813
814
815
813
812
811
811
808
807
806
805
805
808
809
811
813
813
812
812
813
811
814
815
817
822
826
830
833
837
838
840
842
844
847
847
850
856
862
865
867
870
873
874
874
877
876
877
878
880
882
887
889
888
888
886
884
881
880
878
875
876
878
877
877
874
872
870
867
864
861
859
858
857
858
858
857
856
854
852
852
852
850
850
848
850
849
852
856
856
855
855
855
852
850
851
854
855
857
857
861
864
862
858
860
859
862
860
860
861
862
863
866
868
864
865
864
864
863
863
862
864
867
867
869
871
871
870
870
869
867
869
869
869
871
872
875
872
872
873
873
871
868
867
869
871
871
874
876
876
876
874
872
873
872
871
871
873
874
875
877
876
877
873
873
873
873
873
873
872
877
878
877
877
878
878
876
876
872
874
873
875
876
877
880
881
880
878
876
877
876
878
878
880
879
881
883
884
883
883
880
880
880
877
879
879
879
883
884
884
884
882
881
878
878
877
879
881
882
881
885
884
882
881
879
879
877
876
876
879
881
883
885
884
883
881
883
880
879
878
880
882
883
885
887
886
885
885
882
883
882
882
881
882
885
886
888
888
887
883
882
884
881
883
883
882
884
887
889
888
887
888
887
884
884
884
884
885
888
888
887
891
893
891
890
888
887
887
886
888
894
898
902
904
902
900
900
899
898
897
891
892
891
895
896
896
895
894
894
894
897
901
901
902
901
901
898
893
892
886
885
882
881
879
880
882
885
888
889
890
887
886
882
880
878
881
893
912
932
950
965
971
970
958
930
900
879
871
887
927
974
1023
1080
1126
1177
1221
1258
1290
1313
1325
1323
1311
1288
1254
1211
1162
1115
1065
1018
974
932
895
867
849
837
833
838
843
848
851
854
856
856
858
860
863
865
864
866
868
866
866
864
864
862
862
862
863
865
868
867
868
869
868
864
862
860
860
861
860
861
861
864
865
864
864
861
857
859
859
858
858
859
859
861
863
860
860
856
854
853
851
850
853
855
855
858
854
851
850
851
848
848
846
846
845
846
845
849
847
845
843
842
840
837
836
836
837
837
838
840
839
839
839
839
837
834
839
842
844
847
848
852
856
858
861
863
863
864
867
871
873
880
885
890
895
901
900
902
904
905
908
911
912
916
918
922
923
922
923
923
920
917
919
920
918
919
919
919
917
917
914
910
908
903
900
898
898
899
897
898
893
893
891
889
887
886
886
888
887
890
892
893
893
890
888
889
890
890
890
892
895
896
897
896
900
898
900
901
901
900
900
903
905
905
907
909
911
911
911
909
909
910
908
910
910
911
913
915
915
914
913
913
912
912
911
911
913
916
916
920
921
919
922
919
919
917
916
914
915
919
921
922
923
921
922
920
920
917
918
920
920
922
923
925
926
924
924
924
924
919
921
922
920
923
923
925
926
927
928
925
923
924
924
924
926
928
932
931
930
929
928
925
926
924
925
926
927
929
931
931
932
933
932
929
928
928
926
927
929
932
932
933
933
932
930
930
929
928
926
929
929
929
931
934
935
933
933
932
930
928
927
928
928
930
932
934
936
932
933
934
931
927
928
928
927
928
932
934
933
933
933
930
930
931
930
930
930
932
932
933
935
937
931
932
930
931
930
928
931
934
933
932
934
936
935
934
933
933
932
934
935
935
937
938
941
940
940
938
936
935
936
939
943
944
947
949
949
948
947
943
940
939
937
938
937
938
940
942
945
946
948
948
951
947
945
942
939
938
936
933
932
927
929
928
927
925
923
926
926
929
930
929
929
927
923
924
920
922
927
939
955
973
989
1002
1010
1006
994
969
937
909
900
910
938
980
1028
1079
1122
1165
1202
1240
1272
1297
1317
1326
1327
1321
1305
1282
1248
1209
1171
1132
1090
1045
998
957
923
896
882
874
872
876
880
884
888
890
896
901
900
903
906
906
905
901
902
901
900
899
902
900
902
902
902
904
904
902
899
902
900
899
898
898
898
899
900
902
899
901
900
897
897
894
894
893
895
896
896
898
898
895
895
893
889
890
887
885
885
887
887
887
885
882
883
883
881
879
876
877
876
877
879
877
878
874
876
871
870
869
865
866
864
867
870
870
870
869
870
869
870
866
870
871
874
877
880
883
886
887
889
889
891
893
892
894
902
904
908
911
914
917
919
918
920
922
926
928
930
933
932
934
936
936
936
933
933
929
928
927
927
926
927
926
923
920
916
913
909
904
905
903
904
904
903
899
901
897
895
891
893
891
891
886
888
890
893
892
893
893
892
892
893
892
889
890
894
897
900
902
899
900
902
901
901
900
900
900
899
903
906
906
904
903
906
903
903
904
903
905
903
906
910
912
913
910
909
908
907
906
906
907
907
910
911
910
912
913
911
910
907
907
905
907
906
909
910
910
913
913
911
911
909
908
907
905
908
906
911
914
914
915
913
912
910
907
909
909
910
911
911
912
913
914
913
909
910
909
908
908
909
910
911
912
913
913
912
912
910
911
909
906
906
910
911
912
913
913
912
911
908
909
908
907
907
909
911
912
915
914
909
908
911
905
907
906
910
908
909
910
912
913
912
912
907
908
907
907
908
908
910
909
910
913
911
910
910
907
905
906
907
909
908
911
912
910
911
909
908
906
904
904
905
907
907
910
911
909
909
906
907
906
904
904
906
908
907
910
909
912
912
909
907
907
907
907
905
906
910
917
918
918
920
920
916
915
914
912
911
912
911
914
911
911
910
909
912
912
911
916
917
919
917
916
915
913
906
904
899
896
892
892
891
892
894
898
900
898
897
897
894
889
888
889
896
909
927
947
964
974
980
974
956
928
901
880
876
895
936
987
1039
1088
1133
1174
1210
1243
1269
1285
1295
1295
1284
1262
1237
1197
1153
1108
1064
1024
985
947
910
883
861
848
841
842
844
845
850
852
855
856
859
864
866
870
870
870
868
865
864
863
864
861
861
860
862
864
869
868
867
866
865
862
861
858
858
859
860
862
863
861
861
860
856
855
853
853
854
855
856
856
857
857
856
853
849
844
847
845
846
848
848
849
846
847
843
843
840
839
838
835
834
838
838
836
833
834
832
830
830
825
824
825
823
821
822
824
823
822
821
821
821
821
818
817
821
823
829
830
833
833
835
836
837
840
841
844
847
853
858
861
864
867
869
871
873
875
875
880
882
885
888
892
895
896
894
893
894
893
894
892
894
894
895
898
896
893
891
887
886
885
880
881
880
878
878
878
879
878
874
872
867
864
863
862
860
863
865
866
868
866
863
864
863
860
858
859
862
862
865
866
867
866
869
867
867
866
867
863
865
865
870
871
872
872
870
871
870
868
869
871
870
874
875
878
877
877
878
874
874
871
872
872
871
875
876
875
879
878
880
879
879
877
875
874
877
878
879
880
880
879
878
877
875
875
874
875
876
875
877
877
877
878
877
878
876
875
874
873
873
877
879
882
882
881
880
881
879
876
875
877
878
880
878
881
883
881
879
880
877
877
876
876
878
878
879
880
883
880
881
878
879
877
878
878
876
878
881
882
882
878
878
876
877
876
878
878
879
880
881
883
883
882
882
881
879
879
876
876
877
878
880
880
881
880
879
877
876
877
875
874
876
875
878
881
879
878
880
878
877
874
874
874
875
877
877
878
882
882
881
877
875
876
876
875
877
878
881
880
882
882
882
880
879
877
877
875
876
878
876
880
881
880
879
879
877
874
873
875
875
876
882
882
886
886
885
882
882
880
881
882
886
888
888
890
892
892
890
885
883
882
878
878
878
880
881
883
887
890
892
894
893
891
888
887
882
879
878
874
875
876
873
871
872
869
868
868
869
871
874
874
874
871
868
868
872
882
896
917
929
943
949
949
938
915
884
858
850
862
891
938
986
1040
1091
1135
1180
1217
1249
1271
1282
1286
1278
1267
1247
1218
1180
1142
1105
1068
1027
985
939
898
861
833
816
807
809
815
824
831
834
839
840
843
841
841
840
841
841
841
842
845
844
843
842
839
839
838
839
840
841
842
843
843
843
841
838
839
839
837
837
837
838
839
841
840
840
839
837
835
834
831
834
835
834
836
837
835
834
831
831
830
829
826
827
827
824
827
825
826
825
824
822
818
818
814
812
814
815
814
815
813
812
811
807
805
802
803
804
803
805
807
808
807
807
807
807
807
809
808
813
816
817
822
824
826
827
831
832
833
836
839
843
847
848
852
856
857
859
862
865
863
866
867
871
873
877
877
877
877
878
876
875
873
871
869
868
867
867
865
863
862
858
855
852
849
846
842
843
843
842
844
842
838
837
836
833
831
831
831
833
833
832
832
834
837
836
833
833
835
835
835
838
838
840
842
845
844
842
842
842
841
843
840
844
846
847
850
851
849
846
847
844
844
847
848
850
848
851
854
854
854
851
852
850
849
850
850
849
852
854
853
854
855
853
852
850
852
851
852
851
852
852
852
853
853
852
850
847
852
852
853
850
851
853
855
854
855
854
854
851
852
852
852
852
853
855
855
855
856
853
853
852
854
852
852
852
854
853
855
855
854
855
852
851
852
851
851
852
851
853
855
857
858
858
855
852
853
851
848
851
852
856
856
855
854
855
855
853
853
852
853
855
854
854
858
859
858
858
856
855
853
851
854
851
853
856
856
858
856
858
856
854
853
853
853
854
855
854
856
859
859
857
856
854
851
853
851
852
853
858
858
858
860
859
857
853
853
850
851
852
854
856
859
859
856
856
854
851
851
850
851
856
859
859
861
861
861
859
856
857
857
857
857
865
867
869
871
872
872
871
866
864
861
857
859
860
857
859
863
864
867
872
870
871
869
868
864
860
858
858
859
858
856
854
852
849
849
846
849
849
850
852
850
850
850
849
846
844
844
843
842
849
859
877
895
914
926
933
936
928
905
874
844
821
821
839
873
922
967
1010
1054
1091
1128
1161
1191
1215
1231
1237
1235
1225
1207
1180
1147
1105
1062
1020
977
933
894
858
834
818
808
806
807
810
815
819
822
825
828
831
834
835
836
833
831
825
825
824
824
824
826
829
830
831
829
827
829
828
823
824
825
823
826
827
827
830
828
829
828
826
823
821
821
821
822
822
824
825
826
824
822
820
819
819
817
818
818
814
816
817
816
817
814
811
810
808
806
806
803
806
806
808
806
804
803
801
796
796
796
791
791
794
793
791
794
791
789
788
785
785
783
784
786
786
787
787
788
788
789
790
791
792
794
796
799
803
804
811
813
815
816
818
819
824
825
830
834
838
842
845
849
850
851
853
854
855
856
857
860
861
863
863
864
861
860
856
855
853
851
851
849
848
847
845
844
845
841
837
838
833
831
831
830
832
834
832
834
834
834
831
828
829
828
828
829
830
833
834
834
834
834
833
831
832
833
832
834
838
836
837
836
841
840
840
838
837
835
838
841
840
841
844
844
843
843
840
839
840
839
840
842
844
841
846
847
844
843
843
843
842
842
843
844
844
847
848
847
847
848
846
841
844
845
846
846
845
847
847
848
849
845
847
842
842
845
845
847
850
850
850
849
849
846
845
845
846
845
845
845
848
847
853
850
848
848
847
845
843
843
846
845
843
846
847
851
850
847
849
846
846
844
845
847
848
850
852
851
851
849
849
846
846
846
845
848
848
848
852
850
848
847
846
845
843
845
845
846
850
851
853
852
852
849
849
846
846
846
846
847
849
849
851
851
853
851
849
848
848
847
845
846
847
852
852
852
851
849
848
847
846
843
848
848
852
849
856
855
852
849
850
850
848
846
847
849
850
849
849
851
851
851
849
846
847
846
846
846
849
851
853
855
852
853
854
849
853
851
851
848
854
857
863
865
865
864
864
863
859
856
856
855
857
857
856
857
857
857
857
857
859
860
861
864
866
866
868
864
860
859
853
851
848
844
841
844
845
848
848
848
849
847
846
845
842
835
838
838
841
852
866
885
903
919
926
930
919
898
869
847
844
864
909
966
1026
1088
1143
1190
1232
1262
1280
1285
1275
1251
1221
1176
1123
1070
1019
970
924
878
839
811
792
785
789
792
798
805
808
811
813
813
817
818
820
821
820
820
819
818
817
817
816
814
813
817
817
819
818
819
819
819
816
815
813
813
812
814
814
815
816
817
815
815
812
810
809
806
809
807
806
809
810
808
808
806
806
802
800
800
798
798
801
800
800
800
797
795
794
791
789
786
786
787
783
783
786
787
784
783
781
779
778
778
778
779
782
785
787
786
785
787
785
787
787
789
791
795
796
801
804
808
809
812
813
815
818
819
821
825
827
832
837
838
844
844
846
846
848
848
849
850
853
854
857
856
857
853
852
849
849
846
843
844
841
838
840
838
837
835
830
827
825
823
821
820
819
819
821
821
820
819
820
815
815
813
815
815
815
818
820
821
819
820
817
819
820
820
819
821
823
825
827
827
826
824
824
824
824
826
828
828
831
831
834
837
832
833
832
831
828
828
828
830
832
833
835
834
834
834
834
833
833
833
835
834
836
841
841
840
841
840
837
835
836
838
837
838
841
842
843
842
841
840
839
837
837
836
838
841
842
841
845
844
842
841
842
840
840
839
839
840
841
843
845
845
846
845
843
841
840
840
840
841
845
844
848
847
846
846
845
842
841
842
841
844
846
845
847
848
847
845
844
844
842
841
841
843
845
844
848
847
846
847
845
844
843
844
845
843
845
847
849
848
848
849
847
846
847
844
844
845
846
847
850
849
850
847
846
848
844
846
844
847
848
849
851
851
851
850
850
849
849
844
845
845
849
851
853
853
850
850
850
847
846
848
848
848
849
849
852
849
848
847
851
852
848
847
847
848
849
850
853
853
853
852
851
850
849
848
852
853
855
859
858
860
860
857
856
858
859
860
862
864
865
865
868
865
866
860
857
858
857
855
856
860
862
865
868
870
869
869
866
862
858
853
852
852
853
853
853
854
853
850
849
850
849
850
850
849
848
850
849
851
848
851
857
872
891
912
929
933
925
899
868
840
827
841
874
923
973
1025
1073
1117
1158
1191
1217
1231
1235
1230
1219
1204
1174
1139
1100
1063
1027
987
944
904
866
836
815
804
803
806
808
818
823
828
832
835
837
836
834
834
831
830
829
830
829
831
833
832
833
831
830
829
829
827
827
829
829
830
832
833
832
829
827
828
825
824
824
823
824
824
826
824
824
822
821
820
819
817
816
817
818
818
820
820
818
816
814
813
810
810
809
809
809
808
807
806
805
804
800
801
798
796
796
794
795
797
796
796
796
794
793
794
792
789
789
795
795
797
800
801
802
802
803
802
803
804
807
808
810
812
818
825
826
828
829
831
835
836
839
841
848
854
855
861
860
861
860
863
863
861
863
863
865
864
864
864
862
859
857
855
853
850
846
847
846
843
845
842
840
839
836
833
831
830
828
829
827
828
830
829
830
826
824
825
823
823
824
824
828
829
830
830
829
829
829
828
826
831
829
830
832
834
837
838
837
836
837
835
835
833
835
839
840
839
843
843
842
842
840
839
838
839
839
840
840
841
844
844
843
842
841
841
842
841
840
841
845
846
845
846
847
842
838
839
842
841
841
842
844
845
844
845
848
847
845
844
844
844
844
845
845
847
849
849
848
848
847
845
844
845
843
844
846
848
848
851
849
846
846
845
845
843
844
846
847
848
847
849
849
847
847
845
844
842
843
846
847
848
850
849
850
847
848
847
844
846
845
848
848
850
850
851
848
848
848
848
845
845
845
846
848
849
852
852
849
849
847
845
846
846
846
846
849
850
850
853
851
852
849
846
848
847
848
849
851
851
852
852
853
853
850
850
849
847
848
849
851
853
857
857
859
859
859
860
857
856
855
857
860
862
865
867
867
865
861
858
858
855
853
853
853
856
856
856
857
854
850
853
853
854
857
858
860
859
858
853
854
851
848
846
844
847
846
846
847
850
853
852
851
851
849
850
850
847
845
846
845
847
857
871
886
902
916
928
930
930
917
895
869
852
855
880
927
981
1041
1099
1148
1194
1229
1257
1272
1277
1271
1258
1234
1200
1156
1109
1064
1025
984
945
905
869
839
819
802
797
797
801
806
810
813
816
820
822
825
830
828
828
825
826
824
823
824
823
825
825
827
828
828
826
825
823
820
821
822
821
821
821
823
824
823
824
824
822
821
821
819
821
822
821
821
822
821
818
816
816
815
814
812
813
814
813
813
810
810
811
810
807
803
800
802
802
804
801
804
802
801
798
798
795
793
792
791
790
791
790
789
789
789
788
784
781
784
781
784
785
787
789
791
792
792
792
792
795
795
795
796
801
805
809
813
818
820
822
824
827
831
831
833
839
843
847
850
851
853
856
858
859
858
861
863
863
865
867
865
865
863
859
859
858
855
851
848
849
846
846
847
846
844
843
839
838
835
833
833
831
833
834
835
835
834
835
834
831
830
830
832
833
835
835
836
838
839
838
837
834
836
837
838
838
840
840
841
843
842
843
843
842
844
845
844
846
846
846
850
850
851
850
850
849
846
847
847
845
851
851
851
854
856
853
853
852
852
853
849
852
851
852
852
854
853
855
854
852
851
848
850
850
853
854
857
855
855
853
854
853
852
851
851
852
854
855
856
857
857
855
854
857
854
853
854
856
855
856
859
858
856
853
854
853
851
853
853
853
855
854
857
859
858
859
854
853
852
853
854
854
854
857
856
858
859
855
855
854
853
853
853
854
856
854
856
857
856
855
855
855
852
853
852
853
854
855
854
857
856
855
854
853
851
854
851
853
853
853
858
857
854
853
856
855
854
854
854
855
856
856
859
859
857
857
855
855
856
855
853
856
857
858
859
861
861
859
857
855
856
857
856
857
859
863
861
859
861
859
860
859
860
859
858
861
866
865
869
871
872
870
871
869
868
865
866
864
861
863
865
867
867
868
866
866
867
869
871
875
878
877
876
876
873
869
865
863
858
856
854
854
855
857
861
860
859
859
857
856
856
852
850
849
852
858
871
888
907
923
932
939
931
913
881
851
836
845
881
932
988
1047
1103
1152
1196
1231
1255
1270
1273
1266
1251
1224
1187
1142
1094
1047
996
944
895
856
826
810
805
807
811
817
822
825
825
829
830
831
834
835
831
834
831
830
832
832
828
828
832
832
832
832
832
834
832
830
831
828
826
828
827
824
829
830
830
831
830
830
825
827
823
823
824
822
823
824
825
824
823
822
819
821
818
818
817
817
817
816
817
818
816
815
811
810
808
808
805
803
801
803
805
806
805
803
803
800
799
799
798
797
799
799
802
804
803
804
804
805
806
807
811
809
814
815
820
822
825
827
827
829
831
832
836
839
841
846
850
856
857
858
859
860
861
864
864
867
867
870
874
873
873
871
868
867
865
862
860
858
858
855
856
856
852
848
844
843
840
839
837
835
835
834
834
836
834
834
830
828
825
825
827
825
829
830
833
832
832
836
835
834
831
835
834
835
836
838
840
841
843
841
841
839
835
839
841
840
843
844
848
847
849
848
846
846
846
844
844
847
848
849
848
851
849
850
850
847
845
844
844
847
850
851
854
854
852
854
852
850
849
850
849
849
851
853
853
855
856
856
852
851
849
849
847
851
851
854
857
856
857
857
856
854
853
853
852
852
853
855
856
858
859
857
858
854
854
853
853
854
854
855
857
857
857
853
856
854
851
853
854
851
859
858
859
858
859
859
859
859
856
852
856
856
858
859
861
863
862
860
859
856
856
856
856
858
859
860
859
860
862
862
859
858
858
856
854
859
861
862
862
864
864
861
860
860
860
856
857
858
862
864
864
864
864
864
862
860
860
858
859
863
862
861
865
866
865
863
864
862
860
860
862
863
864
865
865
868
865
863
861
862
859
859
858
858
862
863
868
870
870
871
869
867
866
868
868
869
874
878
879
883
882
881
880
876
875
875
871
872
873
874
875
876
876
876
879
881
882
883
881
879
877
873
874
871
868
862
862
859
860
859
858
860
859
862
862
868
865
861
858
855
857
863
879
896
916
933
946
948
936
914
883
859
857
879
923
980
1041
1104
1161
1214
1254
1287
1303
1306
1295
1274
1243
1203
1156
1112
1066
1022
973
930
887
849
827
813
808
810
815
821
828
833
834
835
836
836
836
833
835
837
836
837
840
840
839
837
834
835
834
835
835
834
836
837
838
840
841
838
838
836
832
832
832
833
833
832
832
833
830
832
831
830
828
827
826
826
827
827
830
829
827
826
823
822
819
818
818
819
819
821
819
820
820
817
814
814
808
809
808
808
809
810
810
809
809
807
803
803
800
799
798
799
800
802
803
804
802
803
805
803
805
807
810
811
815
818
821
825
827
829
830
833
835
835
835
843
849
852
856
860
863
864
863
867
870
870
873
876
878
880
884
885
886
886
883
883
880
878
874
873
873
874
874
875
871
868
867
863
860
856
854
854
854
853
855
853
853
852
851
847
845
843
843
844
844
845
850
852
851
849
847
849
849
849
851
848
850
851
855
858
858
858
858
858
856
855
856
857
857
861
862
863
862
862
863
862
861
860
860
858
860
861
864
868
867
868
870
867
865
862
863
863
867
867
866
868
869
869
870
868
867
865
864
864
864
867
867
872
872
870
869
866
868
865
865
866
866
867
867
868
866
870
871
867
866
868
867
867
868
871
873
874
872
873
872
870
868
867
867
866
869
870
870
872
874
873
871
872
869
867
869
868
869
871
870
874
873
872
874
872
872
871
868
869
871
871
873
874
873
876
872
871
870
870
867
868
870
874
876
875
876
877
874
874
871
869
870
868
871
874
876
876
879
877
878
877
876
875
871
871
874
875
875
879
879
879
876
874
874
872
872
872
873
874
876
881
877
876
876
875
873
872
871
873
876
877
879
877
877
877
877
876
875
875
875
873
875
876
878
881
879
881
879
880
879
878
878
879
882
882
885
885
882
880
880
880
875
876
881
884
885
889
890
891
890
888
886
885
883
883
881
881
883
886
885
890
891
893
892
889
889
889
884
883
881
879
876
875
873
874
873
871
871
869
869
871
873
873
875
874
871
871
877
889
906
924
940
950
952
945
924
892
857
834
831
850
888
933
978
1025
1068
1105
1138
1169
1189
1203
1208
1208
1201
1192
1169
1137
1102
1069
1036
1005
970
937
903
872
849
835
829
828
833
841
848
856
858
860
859
857
859
859
859
858
857
859
861
862
862
862
860
859
857
858
857
856
859
860
860
861
859
857
859
855
852
853
851
852
855
858
857
857
857
855
855
851
849
846
847
848
851
849
849
849
847
845
846
841
838
839
839
839
838
837
838
836
834
832
832
828
824
824
820
820
820
821
820
822
819
820
817
813
811
807
805
808
808
808
809
810
807
807
807
804
805
806
804
807
810
815
817
817
820
825
823
825
827
829
832
835
839
843
848
853
853
857
859
859
860
862
861
863
867
870
873
873
871
869
867
866
866
866
866
862
861
859
862
862
862
856
854
850
851
849
847
847
847
850
851
850
849
846
846
846
844
845
845
845
847
847
847
850
848
850
848
846
845
844
844
847
849
851
851
854
854
854
850
848
847
850
848
849
853
854
855
855
854
854
854
853
852
851
850
852
854
855
854
854
854
852
855
854
852
852
852
852
854
855
856
854
855
852
852
851
852
849
849
850
851
853
856
858
857
857
855
855
853
854
852
851
855
855
855
856
857
855
854
852
852
852
850
851
853
853
854
856
855
853
853
853
850
850
849
847
849
854
854
855
855
852
850
849
849
849
849
848
850
853
852
856
856
854
854
852
850
848
851
849
852
852
852
853
851
850
851
849
849
850
849
851
852
856
855
858
856
856
854
852
846
850
848
850
851
853
854
856
855
856
854
852
852
853
850
853
854
856
857
857
859
856
856
855
852
853
850
850
855
853
853
858
858
856
855
855
855
854
853
853
855
853
857
858
857
859
860
857
855
855
853
856
857
859
860
862
860
861
860
858
859
859
858
857
857
859
862
861
861
861
860
860
860
863
865
866
866
869
870
869
870
865
862
858
852
851
849
849
849
850
852
852
854
854
852
846
843
844
852
866
884
903
919
929
930
920
899
869
843
839
854
894
951
1010
1070
1124
1176
1217
1254
1279
1292
1291
1282
1269
1251
1223
1189
1150
1111
1071
1029
981
931
888
844
819
803
797
798
804
809
814
818
819
821
822
823
824
824
825
826
827
827
828
827
825
822
823
825
824
825
827
827
826
826
825
822
826
823
823
820
822
821
822
825
824
825
824
823
822
819
817
816
816
816
819
819
820
820
818
818
815
811
811
809
810
812
812
811
812
810
814
809
807
808
804
802
803
798
799
801
802
799
801
800
797
795
792
792
793
793
794
796
796
798
798
797
796
796
797
798
799
801
803
807
810
810
815
816
814
819
820
822
827
829
835
839
843
845
848
850
852
851
853
855
856
859
860
864
865
867
867
866
865
863
859
857
858
854
856
856
855
855
851
845
843
838
835
836
835
833
832
831
831
833
831
832
829
827
826
824
826
827
828
829
830
830
830
830
826
829
827
827
829
831
833
834
837
838
836
835
831
833
832
833
833
840
839
840
843
843
841
844
840
839
839
842
842
844
847
849
849
849
848
848
847
845
845
847
846
848
849
850
852
853
853
852
846
845
845
845
848
847
850
852
851
853
854
853
849
850
849
847
849
849
849
850
855
855
857
855
854
851
849
851
851
850
850
854
853
852
853
854
854
850
848
851
850
849
851
855
853
856
853
853
852
851
852
851
851
854
856
860
859
859
859
856
857
855
855
853
854
853
856
856
859
861
857
858
857
854
853
853
850
853
854
856
857
860
859
859
857
857
854
852
854
855
857
855
857
858
856
857
856
856
854
852
855
856
858
859
860
859
857
858
854
853
851
855
853
856
856
857
860
860
858
859
858
857
855
855
856
858
858
860
861
863
863
862
861
856
857
856
856
857
859
860
863
861
859
857
856
854
855
855
856
858
861
861
860
860
862
861
859
857
859
857
858
859
860
862
865
863
865
864
862
861
861
860
862
862
865
867
866
865
866
866
869
869
868
871
875
875
876
876
877
876
871
870
868
865
864
863
865
870
872
875
877
880
879
876
874
870
865
861
857
856
856
856
858
859
859
858
857
855
854
854
855
855
854
855
852
856
863
878
889
906
921
932
934
930
913
890
868
856
863
892
934
988
1041
1090
1138
1183
1227
1261
1287
1298
1295
1282
1257
1223
1181
1134
1090
1046
1005
962
923
884
850
825
807
798
796
800
803
812
820
825
828
829
830
829
829
828
827
825
826
827
828
828
831
830
829
829
829
826
824
823
824
825
824
827
830
829
828
827
823
823
821
820
822
824
825
823
825
825
825
821
820
816
818
815
816
817
817
818
819
819
816
815
813
811
809
806
806
806
802
806
807
806
805
803
802
800
796
792
793
795
793
796
794
797
794
795
792
790
789
784
785
785
790
790
794
795
799
798
796
801
802
802
805
806
811
815
818
825
829
828
833
833
837
838
837
843
849
852
855
860
863
865
864
867
864
865
863
868
870
871
872
872
873
870
866
865
862
859
858
856
853
849
850
852
848
847
844
842
836
833
833
833
834
833
831
831
830
829
829
831
826
828
830
830
832
834
835
837
838
837
839
837
836
836
836
838
838
841
844
845
846
846
845
843
843
840
841
840
842
843
845
847
847
848
850
849
849
849
847
848
850
853
855
852
851
853
852
851
851
851
852
853
853
855
857
854
857
855
853
856
851
849
852
854
856
857
859
859
858
858
857
858
855
855
857
856
855
858
858
862
861
861
861
859
857
858
859
859
859
860
862
864
862
864
861
861
860
858
861
860
861
862
864
864
863
863
862
861
860
860
858
861
863
863
865
866
865
866
864
866
863
863
862
863
865
865
868
871
869
868
866
864
861
862
863
862
864
865
867
868
867
865
865
864
865
862
862
862
863
863
864
866
866
867
866
866
864
863
864
864
865
864
866
871
870
870
868
867
866
865
867
867
867
869
868
870
868
868
866
866
865
864
863
865
865
866
864
866
865
869
865
864
864
863
865
867
869
868
870
870
870
870
865
868
867
865
869
870
871
875
875
875
876
872
876
875
876
877
877
879
880
879
883
883
882
879
873
874
871
869
873
873
874
876
877
882
882
886
887
884
884
882
881
878
875
873
874
872
871
866
864
861
860
862
861
861
864
865
866
868
868
866
864
860
854
855
859
870
885
904
923
934
941
945
941
925
902
870
855
852
873
913
963
1015
1068
1117
1160
1195
1228
1257
1275
1284
1285
1277
1261
1241
1207
1166
1124
1081
1042
1002
958
915
878
849
830
819
812
811
813
815
818
817
822
825
830
833
835
840
840
840
837
836
831
832
832
835
836
834
838
838
836
834
834
835
833
833
832
831
835
834
834
835
835
835
832
833
830
831
831
832
832
833
833
835
833
831
830
830
830
826
825
827
829
827
831
829
827
825
822
820
816
818
816
818
820
818
817
818
816
815
813
811
809
807
805
804
805
806
808
805
805
805
801
802
801
802
801
800
803
803
807
808
810
808
811
811
810
810
812
816
820
824
827
832
832
836
837
837
838
841
840
844
853
856
861
862
863
865
866
868
868
869
871
871
872
872
873
872
872
872
866
864
862
859
855
855
855
853
852
852
848
846
844
840
839
836
832
834
832
833
834
834
834
833
833
831
830
828
828
827
829
835
834
834
837
836
835
834
836
836
837
837
839
843
843
844
845
844
843
840
841
842
843
843
845
849
851
852
851
851
848
848
846
847
846
845
846
849
852
853
854
854
852
850
849
847
845
849
850
853
855
857
857
856
855
856
851
853
853
853
853
853
857
855
857
854
855
853
854
852
853
853
856
857
859
858
856
855
855
854
852
851
851
852
854
856
855
857
858
857
855
853
854
854
852
852
855
856
855
859
858
858
852
855
854
853
853
851
853
853
856
856
857
855
855
856
854
852
853
851
854
856
857
859
855
856
854
853
853
853
854
853
853
853
856
856
856
854
854
854
855
853
853
854
855
855
856
858
855
856
853
852
853
850
852
854
855
856
858
857
859
857
855
855
855
851
853
854
856
854
858
859
859
858
855
856
854
852
853
853
857
855
859
859
859
858
857
856
856
856
857
858
861
862
861
865
865
863
863
862
860
858
859
861
864
866
871
872
873
870
872
870
867
863
864
864
861
864
863
864
864
861
865
866
867
870
870
871
868
866
866
864
861
858
855
852
848
848
848
850
851
853
854
856
855
852
849
846
847
846
854
866
887
908
924
937
941
935
910
876
845
828
837
870
918
973
1031
1083
1135
1174
1209
1231
1243
1243
1232
1214
1185
1153
1110
1069
1025
982
936
893
856
828
811
801
803
808
816
825
826
832
831
829
831
831
830
831
831
832
831
831
832
831
831
829
831
829
827
829
830
831
832
832
832
831
829
826
827
826
825
825
825
825
823
824
825
823
821
822
818
818
816
816
816
816
816
817
817
815
813
811
809
807
807
805
807
805
805
806
804
802
798
796
795
793
793
790
792
790
792
791
791
790
789
786
784
785
785
787
788
790
789
794
796
797
798
798
798
797
800
805
807
811
815
820
822
825
826
830
832
835
836
841
846
851
854
856
860
859
854
856
854
853
856
856
858
857
859
858
857
855
852
850
848
845
843
843
842
841
842
838
840
838
835
836
832
833
830
831
832
832
835
834
833
832
831
831
830
828
828
828
829
834
833
834
836
837
835
835
835
830
834
838
839
839
839
838
839
841
839
840
838
839
839
840
843
843
844
842
842
844
844
843
841
840
841
841
843
843
845
846
846
845
844
843
841
843
843
842
844
845
844
846
844
844
844
841
842
838
839
840
843
847
848
848
847
843
845
842
839
844
842
842
843
844
846
847
851
847
846
846
844
845
845
845
848
850
849
852
850
850
849
847
847
846
845
845
847
848
850
852
851
847
846
846
845
846
846
846
846
850
855
852
853
852
850
849
848
846
847
847
847
850
851
853
852
851
852
849
849
846
847
849
849
851
853
854
854
853
853
852
850
848
849
850
851
851
851
853
855
852
850
849
845
845
845
845
846
853
854
855
855
852
852
849
847
848
847
848
848
850
854
853
853
853
852
849
849
847
849
849
849
852
853
856
859
857
857
856
855
856
855
854
856
857
860
863
865
866
866
866
865
866
864
865
864
865
864
864
864
861
862
859
858
860
861
863
867
871
872
875
872
871
867
860
855
854
851
850
849
850
851
852
852
851
849
851
850
848
846
844
844
844
851
864
880
898
913
924
931
926
909
887
861
846
852
876
923
976
1030
1084
1131
1178
1220
1256
1281
1295
1296
1288
1264
1236
1198
1149
1102
1055
1011
967
923
882
847
819
803
796
795
799
800
807
809
813
815
821
826
830
830
829
825
822
821
821
821
821
822
824
823
828
825
826
823
821
821
821
819
818
820
821
821
826
825
825
822
821
818
815
812
815
816
818
819
819
819
820
817
815
815
812
811
811
811
811
810
811
811
808
808
807
806
805
802
802
800
802
803
804
802
801
801
799
795
793
792
794
793
793
792
795
796
795
795
792
791
793
792
793
796
796
802
801
803
804
803
805
806
809
811
813
820
822
825
832
836
838
843
844
844
847
846
851
854
856
859
861
864
864
864
861
861
860
857
857
855
855
856
855
851
850
848
843
839
836
836
832
833
832
831
833
833
830
828
827
824
822
820
819
818
820
824
827
826
827
827
826
824
825
823
822
826
826
832
833
833
834
834
832
830
832
831
832
835
837
839
837
835
836
838
839
839
841
840
839
843
845
845
846
846
847
846
846
843
840
840
842
841
842
847
848
850
849
847
846
845
845
845
843
845
846
846
847
849
849
849
849
850
849
849
847
849
853
853
852
853
852
849
850
847
847
848
848
851
853
854
857
856
853
854
855
854
853
853
850
853
854
856
856
857
857
857
857
856
854
852
853
855
857
859
858
861
858
856
855
857
857
853
856
856
857
859
861
858
858
857
859
858
856
854
854
855
859
859
861
861
858
861
856
854
855
855
857
855
855
857
859
862
859
861
857
856
857
854
857
858
861
862
863
864
862
861
859
858
856
858
856
861
862
862
864
865
862
861
861
861
860
860
859
864
863
865
866
865
869
868
867
867
866
868
869
869
870
866
867
868
868
874
876
878
878
879
876
878
880
879
882
879
876
876
873
872
872
873
871
876
880
884
888
886
885
883
878
876
875
871
867
868
869
869
871
871
870
870
868
867
866
864
866
866
871
870
870
868
867
873
887
906
926
942
956
957
947
921
890
858
841
849
876
920
968
1016
1061
1104
1145
1180
1213
1234
1247
1251
1244
1232
1213
1184
1152
1115
1079
1042
1008
969
929
893
864
838
828
821
823
827
834
838
845
845
848
848
850
850
850
849
847
849
850
849
852
853
852
851
847
844
849
846
847
848
852
853
855
856
855
852
849
849
847
844
845
846
848
849
850
847
847
847
845
844
842
842
841
841
843
843
845
842
843
841
840
836
837
836
833
832
834
831
833
833
830
828
826
825
823
822
822
820
820
819
820
820
820
816
816
816
813
812
811
811
812
811
813
812
813
812
812
811
811
811
813
814
815
822
821
822
825
826
827
830
833
832
836
841
844
847
852
858
859
861
867
868
872
871
875
878
881
883
886
888
885
886
884
883
883
883
883
883
883
882
881
877
877
875
872
868
868
863
862
863
864
863
862
863
862
861
859
856
856
856
854
855
855
856
858
862
862
860
860
858
857
856
858
860
858
860
863
864
864
863
864
864
862
861
863
865
868
869
872
872
868
870
869
865
868
868
867
869
868
871
871
872
872
873
871
870
870
869
872
872
874
874
875
873
878
876
874
874
873
872
874
872
873
873
875
876
876
871
872
871
872
872
873
873
875
875
876
876
876
876
875
873
874
875
874
874
878
877
878
878
875
877
878
875
874
875
876
877
877
880
880
883
880
882
880
879
879
877
878
878
880
881
882
882
882
879
878
879
877
877
878
880
882
881
883
885
883
883
883
881
881
881
881
882
883
884
884
885
884
885
883
884
882
882
880
883
884
886
886
889
888
887
884
882
881
882
881
882
886
889
890
891
890
889
887
888
888
890
891
890
893
895
896
898
895
895
896
897
894
898
899
899
900
904
903
904
900
899
895
896
892
893
893
896
896
900
904
908
909
910
908
906
902
899
900
895
894
892
890
890
890
890
888
888
888
886
888
887
889
889
888
887
886
886
893
906
923
937
950
963
969
965
949
925
900
884
888
916
959
1013
1071
1128
1187
1240
1288
1323
1341
1344
1329
1301
1266
1221
1171
1122
1075
1031
987
945
903
870
850
836
832
832
838
845
847
856
861
863
865
867
865
863
862
860
859
860
862
863
863
864
864
863
861
859
859
857
861
860
863
864
864
864
863
862
862
858
858
856
855
860
859
858
860
861
859
859
856
855
853
854
853
853
852
851
855
855
855
851
848
847
847
846
845
843
842
843
843
841
840
838
836
836
833
833
831
833
832
833
832
833
831
827
827
827
827
829
831
831
833
836
839
839
841
843
844
845
845
847
850
852
858
863
867
873
875
878
879
882
880
882
887
887
892
897
901
902
902
902
903
903
903
902
898
901
902
901
902
899
894
893
888
886
884
879
879
877
876
876
876
872
872
871
870
869
864
864
865
863
864
867
867
870
869
866
866
864
866
864
864
867
869
872
872
871
877
876
876
873
875
874
875
873
875
876
879
881
881
881
879
881
880
880
880
881
883
884
885
886
886
884
880
882
882
884
883
886
885
887
890
892
891
890
889
886
884
887
886
885
883
887
888
889
889
888
888
888
885
886
888
887
888
890
892
890
892
888
888
888
885
885
887
889
892
892
892
893
893
892
889
888
888
888
888
889
890
889
893
893
892
894
894
891
889
891
890
891
894
894
895
894
895
895
893
895
895
893
894
893
894
896
897
898
899
899
898
896
895
895
894
893
896
898
899
901
900
899
899
898
895
894
895
896
897
899
899
900
901
901
899
897
894
895
896
895
898
900
901
902
903
900
900
899
898
895
897
900
900
900
903
904
903
902
902
899
900
900
900
900
901
902
903
904
904
907
905
906
903
905
901
904
908
909
909
912
909
907
909
910
911
912
913
917
920
920
922
921
917
914
911
910
909
909
909
909
910
915
919
920
921
926
922
918
917
914
910
908
906
906
903
903
901
902
903
900
900
896
899
901
902
902
902
900
900
902
912
929
945
963
978
985
982
964
932
900
880
879
904
944
995
1048
1099
1147
1194
1232
1261
1280
1292
1291
1278
1260
1230
1191
1146
1103
1059
1010
964
926
891
868
856
851
854
859
867
870
876
880
882
883
884
882
882
879
877
877
876
875
878
880
879
882
881
881
879
878
875
876
876
877
875
875
876
878
879
878
877
875
872
873
873
874
876
875
875
875
874
875
870
871
869
867
867
868
869
868
870
870
869
866
863
862
861
857
857
857
854
855
855
854
853
853
851
849
850
845
843
842
845
847
847
851
850
848
847
845
846
846
846
849
851
851
856
856
858
861
859
860
862
865
869
870
872
877
883
887
888
889
890
894
897
898
899
903
906
911
912
914
917
917
918
916
916
917
916
915
916
917
914
915
910
912
909
907
902
899
899
896
896
893
895
891
891
889
886
884
882
880
879
880
881
880
881
881
879
880
880
879
877
877
877
877
880
881
884
886
885
883
884
882
882
884
885
885
886
888
889
891
891
891
890
891
889
889
888
889
892
894
896
897
895
894
894
893
892
891
891
892
892
892
898
900
895
896
896
895
891
892
890
892
894
896
897
898
900
898
896
892
892
891
892
892
897
899
900
900
900
898
899
899
896
895
898
897
896
900
902
901
903
902
900
898
897
895
895
898
901
901
904
905
906
904
903
900
900
896
895
896
900
901
903
904
902
901
900
899
896
895
898
898
899
902
903
904
905
903
902
902
901
900
903
902
903
906
909
910
908
904
902
901
901
898
899
901
903
902
904
909
906
905
902
902
903
901
903
903
905
903
906
906
906
907
906
905
903
906
904
903
906
904
909
913
911
911
910
910
910
908
908
909
906
907
913
914
919
919
919
917
915
914
917
914
914
913
913
915
915
911
912
911
912
914
917
919
924
925
924
923
919
915
910
903
900
900
899
900
902
903
901
905
902
904
900
899
897
895
897
908
927
949
966
980
988
986
971
944
918
896
896
920
962
1015
1074
1131
1184
1234
1271
1302
1321
1329
1327
1317
1296
1270
1233
1191
1145
1103
1061
1018
979
941
910
884
867
855
853
853
856
859
860
865
868
872
871
871
877
880
880
881
881
877
878
877
875
874
874
876
877
878
877
878
876
876
874
872
872
871
873
873
875
876
877
878
875
875
871
872
870
868
868
867
869
870
872
870
870
866
864
861
858
857
856
857
858
858
858
862
859
859
855
853
851
850
849
851
851
852
851
851
851
848
843
842
840
839
840
839
839
838
840
840
839
839
836
836
836
834
835
834
839
842
843
847
850
850
851
851
854
852
858
861
865
870
874
879
883
886
887
886
888
889
891
895
899
903
906
909
910
912
910
911
910
912
913
912
912
912
914
913
911
909
907
904
902
898
896
896
896
893
892
892
890
889
887
885
883
880
879
876
878
881
882
882
881
881
879
880
877
878
879
880
879
882
882
886
886
887
885
886
884
885
884
885
886
887
890
892
891
891
890
886
888
885
887
888
888
891
892
893
893
894
893
894
893
891
890
891
893
896
898
899
898
897
899
896
897
894
895
895
897
897
899
901
899
899
898
898
897
897
895
894
896
900
901
902
900
902
899
900
898
898
897
898
899
899
900
904
905
903
900
901
898
900
898
898
900
899
899
902
902
901
897
900
900
899
896
898
899
901
900
901
903
902
900
902
900
899
897
899
898
900
903
904
903
903
902
900
897
899
898
895
900
901
901
903
905
904
901
900
899
898
898
898
899
901
904
901
902
901
900
900
899
898
900
901
902
901
902
904
905
902
903
901
902
899
900
900
900
901
905
905
905
902
902
902
900
901
899
901
902
902
902
903
904
904
903
902
903
900
899
901
904
905
907
911
910
913
910
906
906
904
905
905
907
910
918
918
917
919
917
915
914
910
911
909
909
909
911
913
912
913
915
916
921
920
920
920
917
913
912
908
904
902
901
898
898
897
896
897
900
901
901
901
900
900
898
894
894
903
916
935
953
969
980
982
971
949
921
896
885
897
929
978
1034
1089
1144
1193
1237
1274
1304
1323
1332
1328
1316
1296
1264
1225
1184
1142
1099
1056
1011
966
924
888
862
849
842
842
847
853
856
862
864
868
869
867
873
871
872
871
873
873
874
873
874
872
872
872
869
870
872
873
872
874
874
873
871
866
867
868
867
869
865
870
871
872
870
871
869
867
863
863
863
863
866
865
865
866
864
864
862
861
860
859
856
856
857
856
858
860
857
856
849
852
850
846
846
847
846
845
845
846
844
844
842
841
839
838
838
836
837
838
837
843
843
843
843
842
844
847
846
852
852
854
855
861
862
865
869
870
872
877
878
881
885
888
891
897
898
898
898
899
898
900
901
904
905
908
910
912
913
909
908
906
904
901
902
900
898
897
896
895
892
890
886
883
880
877
874
874
875
875
873
872
870
869
870
869
868
866
866
868
866
866
868
871
871
871
869
870
868
867
866
870
871
873
875
879
880
878
875
874
877
877
878
879
879
882
882
888
887
885
885
883
883
882
882
879
879
881
883
884
885
885
887
883
883
884
883
884
887
889
889
891
890
890
890
888
888
885
885
886
889
889
892
891
891
891
891
888
885
886
883
884
887
888
891
893
894
893
892
891
889
886
887
888
888
889
891
894
894
894
890
890
886
889
889
889
891
889
890
891
890
892
893
890
889
889
890
890
891
893
891
894
890
890
890
891
891
888
886
889
889
891
891
893
894
894
893
892
890
890
887
885
889
890
894
895
895
895
895
891
891
890
889
892
889
889
894
898
897
895
894
892
892
889
889
889
891
891
895
896
894
893
891
889
890
888
889
889
891
893
893
895
898
893
893
892
892
887
889
889
892
892
892
895
895
894
894
892
890
888
889
891
893
895
894
896
895
895
894
893
890
889
893
892
894
899
898
901
900
898
896
895
896
899
898
900
900
904
909
912
910
906
904
901
898
898
897
895
897
900
904
907
910
913
914
911
907
904
898
895
898
895
892
893
891
890
890
888
889
888
887
887
886
889
890
890
892
891
891
890
893
900
913
929
945
959
970
973
962
938
907
877
865
872
899
944
991
1043
1088
1133
1172
1209
1238
1257
1267
1271
1264
1253
1236
1210
1182
1146
1103
1051
996
938
891
856
839
834
838
847
855
861
867
868
868
866
864
869
868
867
871
871
872
874
874
870
871
869
868
869
867
866
868
869
870
873
873
871
870
868
867
868
864
865
866
867
871
870
869
870
868
866
863
862
862
861
860
861
862
864
863
863
861
859
857
853
852
852
852
855
857
855
853
853
851
845
843
843
842
839
840
841
839
839
841
840
838
834
832
832
834
831
834
835
836
838
840
842
841
843
840
842
842
844
846
852
851
861
862
863
864
867
868
872
874
878
880
883
890
895
896
901
901
902
902
900
903
903
907
905
907
908
910
911
909
905
903
901
897
896
894
895
894
895
893
890
888
885
884
880
877
876
875
874
873
876
875
878
873
872
871
870
869
869
870
871
872
874
874
873
874
872
872
871
871
873
873
873
878
882
884
882
882
880
881
879
879
880
881
883
884
886
886
885
886
885
882
880
882
884
881
883
884
886
887
886
886
887
885
883
883
885
886
887
888
890
890
888
885
887
884
885
884
885
886
888
888
891
890
891
890
886
886
886
888
888
888
889
888
892
891
888
890
889
889
889
887
889
888
891
891
894
892
890
889
890
889
886
887
887
887
889
891
894
893
891
891
892
889
889
888
887
891
889
891
893
895
892
891
889
887
886
887
889
888
890
890
894
892
891
892
891
890
890
889
890
890
890
892
894
893
895
893
891
890
889
889
887
889
890
891
893
893
893
892
891
889
889
890
890
891
893
894
896
895
897
895
895
892
892
891
892
893
891
893
895
897
897
897
898
897
896
896
899
898
898
899
902
903
906
906
908
909
908
908
908
909
910
910
907
907
907
905
904
903
902
903
907
909
912
915
919
917
913
911
906
902
899
896
890
892
892
893
897
898
897
898
899
899
897
893
892
891
892
900
914
933
950
967
977
984
978
958
926
900
878
877
898
939
990
1042
1091
1132
1174
1209
1242
1268
1284
1289
1287
1278
1261
1233
1198
1161
1121
1081
1042
1002
960
923
893
872
860
859
860
862
867
871
878
880
882
884
887
888
886
884
883
880
880
881
883
885
884
887
886
887
887
886
884
885
885
880
884
882
883
885
886
887
888
887
886
883
880
879
878
879
883
884
887
885
884
881
879
878
877
877
877
876
874
876
878
878
876
875
873
871
869
869
867
871
871
871
870
870
868
865
863
859
859
857
857
857
858
859
859
859
854
856
853
852
849
850
850
851
854
855
858
859
859
859
859
860
859
863
862
867
870
874
878
882
882
885
885
887
889
891
895
898
901
906
911
914
916
919
919
922
920
922
925
927
931
935
935
939
939
936
934
936
934
933
931
931
932
929
930
932
929
927
924
921
918
916
913
914
914
916
915
915
914
912
911
909
908
910
908
908
910
911
912
911
912
913
910
912
911
911
912
915
915
916
918
920
920
918
921
918
918
919
919
921
921
924
926
928
927
926
923
923
922
920
924
925
926
927
925
928
927
929
928
929
929
927
927
930
928
931
933
935
934
933
931
932
931
930
930
928
930
932
936
936
933
932
932
930
930
930
928
933
935
935
937
935
935
935
936
934
935
934
935
936
937
937
940
939
939
938
937
936
936
933
934
936
936
938
938
939
939
938
936
935
935
934
936
936
936
939
941
940
941
941
939
938
935
936
937
938
939
941
942
941
942
942
941
936
937
935
936
936
940
942
942
944
941
941
941
939
937
936
936
939
939
941
942
945
940
941
939
940
939
939
937
938
941
945
945
945
945
943
942
939
939
938
937
941
942
944
946
946
946
948
944
944
941
940
941
941
944
946
948
951
949
947
946
948
946
944
943
944
946
948
949
952
952
954
955
956
953
953
954
952
954
954
956
953
953
950
948
946
944
944
945
947
950
954
960
963
964
963
958
954
949
945
940
936
937
937
939
937
940
940
939
938
934
934
936
936
936
937
935
933
935
940
950
966
981
995
1005
1010
1010
998
977
951
929
922
937
972
1021
1072
1122
1172
1218
1257
1288
1314
1329
1336
1331
1319
1297
1265
1228
1190
1150
1116
1078
1040
996
955
919
895
881
878
881
886
895
900
906
911
911
911
914
913
910
908
909
909
908
909
910
910
910
909
908
906
904
906
903
904
905
906
906
906
905
903
903
903
902
901
901
901
902
902
904
903
903
903
899
898
898
898
898
897
899
900
899
900
898
896
894
890
888
887
888
888
888
885
888
888
887
885
882
881
877
876
877
874
876
875
877
875
875
873
870
868
867
866
865
867
868
871
873
875
876
874
875
876
876
880
877
881
885
891
892
896
895
897
901
903
906
906
911
915
920
923
926
929
931
933
933
935
933
934
934
937
938
938
936
938
934
931
929
925
924
919
918
916
916
915
914
910
908
906
903
901
897
894
892
896
895
896
896
896
895
893
892
894
890
892
894
894
896
897
899
900
899
898
898
899
898
896
897
899
900
902
904
903
904
904
904
904
902
901
902
903
904
906
907
907
907
905
906
908
904
903
902
906
906
908
907
908
908
909
908
906
905
902
901
902
903
905
907
908
908
905
904
904
902
905
904
904
905
907
908
909
908
908
904
906
904
903
905
905
903
904
904
907
906
903
904
902
901
900
901
901
901
902
904
903
899
899
900
900
898
899
900
899
900
900
899
899
902
902
902
900
897
894
896
895
900
902
900
903
899
900
897
896
898
896
895
897
899
900
900
901
900
898
895
893
894
893
894
895
896
897
898
898
899
898
897
895
894
893
895
893
894
897
897
900
899
898
896
893
892
892
892
895
896
898
900
902
899
898
895
895
890
890
893
895
901
904
905
904
906
905
905
902
899
897
897
896
894
895
896
897
896
896
896
897
897
898
898
901
902
900
899
900
897
895
890
886
881
878
877
877
875
876
877
883
881
881
876
875
870
867
873
885
899
920
936
953
961
960
945
919
887
863
857
873
911
960
1016
1068
1116
1158
1194
1223
1245
1259
1265
1264
1253
1233
1204
1168
1127
1085
1043
1005
963
923
887
858
837
825
822
823
828
833
837
840
842
843
844
842
846
847
850
847
849
849
848
846
844
841
842
842
840
843
844
843
844
844
842
840
838
839
837
835
837
839
837
840
840
836
834
830
829
828
827
825
828
829
831
831
828
829
826
825
822
820
818
818
819
819
819
818
818
815
814
810
805
803
801
803
802
803
804
803
803
800
799
796
794
793
791
792
795
796
798
793
797
795
797
797
798
799
799
801
806
809
813
817
821
822
823
827
828
829
832
838
840
846
849
856
856
857
860
860
857
860
861
861
864
867
866
864
866
866
864
859
855
854
851
852
850
851
851
850
846
843
841
839
836
833
832
830
831
832
831
832
832
831
828
828
826
826
826
827
829
829
832
834
834
832
834
831
831
829
828
830
829
831
834
834
835
836
834
832
833
830
829
831
834
835
838
839
840
839
838
837
836
836
835
836
836
837
839
841
841
843
837
838
835
833
834
836
835
838
840
840
842
840
837
836
836
834
837
837
840
840
842
843
843
844
841
840
837
837
837
838
839
838
840
841
841
840
836
836
837
836
835
836
835
838
839
840
839
839
837
835
831
832
830
830
831
835
838
838
838
838
838
833
833
830
830
832
832
833
835
837
839
835
832
834
831
829
829
828
833
834
835
839
838
836
836
835
834
832
832
832
832
834
838
837
838
836
836
835
832
832
830
831
831
831
833
836
836
834
832
830
830
829
830
829
830
831
832
836
836
835
834
834
832
830
829
831
830
830
833
836
835
834
833
832
831
829
827
828
829
831
834
836
837
837
837
834
834
834
831
831
833
834
837
841
846
847
845
847
846
842
844
842
841
838
839
839
838
839
839
838
836
837
837
839
843
846
848
850
846
846
844
839
835
830
828
826
822
824
824
826
827
824
824
824
825
825
821
817
818
815
821
831
844
864
878
893
899
900
889
865
839
818
812
829
867
914
969
1021
1072
1116
1157
1189
1217
1232
1241
1237
1227
1209
1181
1143
1100
1057
1014
973
930
887
848
816
792
775
768
767
771
773
776
781
787
790
796
798
797
798
797
794
793
792
791
791
792
792
794
795
795
793
793
791
789
789
790
789
791
790
791
790
788
788
789
787
788
787
785
785
787
785
785
786
785
784
782
782
777
778
778
776
778
778
779
778
777
774
773
770
769
768
767
768
768
766
767
769
767
765
762
759
759
758
754
758
756
756
757
758
754
752
749
748
748
746
747
748
749
753
755
758
757
757
758
758
759
760
763
767
772
773
781
783
786
788
788
790
792
794
795
800
806
810
814
817
819
819
821
