908
908
908
908
908
908
908
908
907
906
908
908
909
913
910
909
907
907
905
905
902
903
906
907
908
908
907
906
905
903
904
904
903
903
906
907
906
909
908
907
907
909
905
904
903
905
906
904
906
907
908
908
907
904
903
903
900
902
902
904
904
907
905
906
902
902
902
903
903
905
905
906
911
907
910
909
908
907
906
905
906
909
912
914
917
919
921
922
926
925
926
925
928
931
933
935
938
937
936
935
929
928
927
926
925
927
928
928
930
930
927
924
917
915
911
909
907
907
908
911
910
911
912
909
908
907
903
902
904
906
904
905
909
913
911
909
909
906
906
906
909
907
909
911
916
918
919
919
920
921
921
922
925
934
949
972
1004
1049
1109
1179
1255
1318
1357
1358
1315
1223
1096
968
843
772
752
773
817
864
903
926
938
941
938
930
926
923
920
922
921
924
924
924
924
926
926
926
927
928
929
927
929
928
925
926
922
923
928
930
928
931
930
931
930
927
925
926
929
929
929
930
930
932
931
931
930
927
926
927
927
925
926
926
930
931
931
933
929
931
928
927
928
930
931
930
931
935
936
936
936
935
936
932
933
933
936
938
937
939
941
941
940
940
938
939
941
938
942
942
944
947
950
949
948
946
945
945
946
945
947
950
952
951
951
951
949
948
947
947
947
948
949
949
951
955
953
952
951
953
951
950
951
948
951
948
948
951
946
945
945
939
935
931
929
926
925
925
923
924
918
917
915
914
911
910
910
908
911
909
912
913
912
907
909
907
907
905
906
906
908
908
911
913
914
913
911
908
908
907
909
910
911
914
915
916
916
916
914
914
911
911
914
914
915
918
919
919
919
919
919
916
912
913
913
914
913
914
914
916
916
915
911
911
910
909
908
909
908
910
911
913
911
910
910
908
909
904
906
907
905
905
908
909
908
906
906
902
902
902
901
902
901
902
905
905
906
907
906
904
903
902
899
901
902
905
906
906
906
907
905
903
902
901
902
901
903
903
905
906
905
905
903
904
903
906
903
906
909
911
914
918
920
921
921
921
924
925
926
926
929
930
933
937
932
930
927
927
928
928
926
928
928
926
928
924
919
915
912
907
904
902
901
900
903
904
905
905
903
903
902
901
898
898
899
899
900
901
903
901
901
902
905
903
903
903
905
904
907
909
914
915
916
920
919
923
931
944
970
1007
1055
1116
1189
1264
1321
1346
1322
1243
1115
987
859
768
750
778
825
875
917
939
944
939
930
921
915
913
909
911
918
920
921
921
918
917
918
918
918
920
919
919
923
924
923
923
922
920
921
919
919
920
923
925
925
927
927
926
925
923
922
921
922
920
924
923
927
927
929
927
927
926
922
922
922
922
923
925
929
930
931
931
929
929
926
923
925
926
926
925
929
934
928
931
931
930
927
928
928
926
931
929
932
935
935
937
936
935
938
937
937
937
938
941
941
942
942
943
941
941
943
941
941
939
940
941
944
946
947
947
946
944
941
941
939
942
941
942
944
946
948
944
946
944
942
939
936
936
935
934
933
932
929
925
923
921
918
913
911
910
908
906
903
905
906
904
903
902
900
898
897
895
896
896
898
899
901
902
900
901
899
897
898
898
899
903
904
908
907
907
908
906
903
903
903
903
904
904
909
909
908
908
907
908
905
904
903
904
904
904
905
905
903
905
904
900
899
902
901
900
901
901
900
904
904
903
902
899
895
892
895
896
896
896
898
899
899
898
896
895
892
893
894
894
894
895
897
895
895
895
895
895
892
892
892
893
892
894
897
901
901
902
904
903
906
905
908
912
916
919
924
928
928
924
924
921
920
918
919
920
920
922
920
922
920
917
916
911
904
902
896
897
894
895
897
897
897
895
896
890
891
890
891
889
891
891
893
895
895
894
892
892
890
890
888
888
891
892
895
897
899
898
898
898
898
900
904
904
904
908
915
924
937
964
995
1041
1099
1167
1238
1305
1351
1366
1342
1275
1173
1047
922
819
760
750
779
826
870
904
924
932
933
926
920
911
909
908
906
908
912
912
913
917
917
917
915
914
911
914
911
911
912
916
916
920
919
916
918
913
914
915
915
914
916
918
918
918
920
920
918
918
918
919
918
916
915
919
922
922
918
921
921
921
921
919
921
919
923
924
925
928
928
926
925
925
925
923
924
922
925
927
928
930
930
931
931
930
929
931
930
932
934
935
935
939
939
939
937
938
935
939
939
941
941
942
945
949
948
949
948
950
947
948
945
946
947
948
948
951
952
952
949
950
948
945
947
946
945
944
942
942
941
933
929
927
924
922
918
914
913
913
908
910
908
904
903
897
895
895
892
894
894
893
897
897
895
893
892
894
890
892
893
892
894
893
895
897
898
899
898
897
897
898
898
898
902
901
902
905
906
906
904
905
904
903
903
903
905
906
908
907
908
906
904
905
903
902
903
902
902
905
906
904
903
902
899
901
898
897
897
898
900
898
901
900
902
901
899
899
895
891
895
896
896
898
899
900
901
897
898
896
896
894
894
897
896
897
896
898
898
898
896
895
894
894
892
893
893
896
895
897
897
896
894
893
894
893
896
892
892
896
899
898
898
897
892
896
893
895
897
898
896
902
902
903
906
910
911
908
908
911
914
914
917
922
923
925
926
927
926
923
923
918
918
918
918
921
924
924
924
922
918
916
911
908
906
904
900
902
902
903
901
902
899
898
896
896
896
898
898
896
899
900
899
898
897
897
894
897
895
897
897
901
902
902
904
905
903
905
903
905
906
907
909
915
918
920
925
935
951
977
1017
1069
1139
1214
1285
1343
1373
1363
1310
1216
1092
968
858
780
749
760
800
844
884
914
929
935
935
928
922
915
914
914
915
917
919
922
923
921
920
919
918
917
918
918
921
921
923
923
924
924
920
921
920
917
918
921
923
924
924
925
925
925
922
923
921
921
921
921
924
925
926
927
927
925
925
923
920
922
920
922
924
926
926
924
928
928
928
928
926
924
925
926
928
930
932
934
933
934
934
930
929
929
931
932
933
938
939
941
941
939
939
939
938
939
938
941
941
943
943
945
946
945
944
945
943
943
943
941
944
948
950
950
948
948
948
950
948
948
950
947
948
950
952
950
951
947
944
937
935
932
929
926
926
923
922
922
919
917
913
910
909
905
906
903
904
904
901
906
904
905
904
900
900
900
902
902
904
903
905
906
907
907
906
906
905
902
904
905
907
908
910
909
909
911
908
909
909
909
910
907
913
912
913
914
912
913
913
911
909
912
911
912
911
913
913
914
914
913
911
910
908
907
907
904
903
906
907
906
907
906
906
905
903
900
903
901
903
904
907
905
904
905
903
900
900
899
900
900
901
903
903
903
903
902
902
901
901
898
897
897
900
902
903
904
902
903
900
899
899
898
899
898
899
903
902
904
902
904
900
902
899
900
901
900
900
902
904
902
905
904
902
902
900
898
901
898
899
900
901
903
904
905
901
901
900
901
900
900
901
903
904
905
902
901
902
900
899
897
900
903
904
902
904
904
903
905
901
900
899
899
902
902
904
904
906
906
905
905
903
901
899
899
897
900
901
904
906
908
907
910
911
908
911
914
916
918
924
927
928
932
931
932
932
930
926
924
926
925
927
927
930
932
930
930
924
921
915
912
909
908
906
907
909
910
908
906
907
905
902
900
898
900
901
900
901
906
906
906
904
902
899
900
898
904
904
903
906
908
905
907
908
909
908
910
913
914
917
920
923
931
941
958
984
1021
1069
1137
1212
1283
1333
1340
1288
1181
1053
925
797
754
762
804
856
905
935
948
948
938
930
921
915
915
915
916
919
919
922
920
921
923
923
921
921
922
920
919
920
921
922
923
924
927
926
926
926
924
922
921
922
923
924
923
924
924
925
922
923
920
920
923
924
924
927
926
929
926
931
928
927
925
924
924
922
924
925
925
928
930
933
930
930
929
930
928
927
931
930
933
934
937
934
934
935
932
934
933
934
935
936
935
939
939
942
938
938
938
940
939
938
939
939
938
940
943
942
940
940
938
937
935
935
935
935
935
938
938
939
939
940
938
940
938
938
937
938
939
939
938
934
932
930
925
924
920
917
917
913
910
911
912
911
909
907
906
903
901
903
900
900
901
905
905
904
904
903
899
898
898
901
901
901
902
903
908
908
906
904
904
905
905
906
904
906
907
907
912
908
910
908
906
904
905
905
905
907
910
911
911
911
909
911
910
907
905
903
903
907
905
907
907
907
904
906
905
903
900
900
899
898
900
904
904
903
902
900
898
897
893
897
895
897
895
895
896
900
898
897
896
895
895
893
894
895
894
896
897
898
897
896
895
892
892
893
893
894
895
897
898
898
895
897
893
890
890
888
893
891
893
895
898
898
900
900
898
899
901
902
904
908
911
912
915
917
919
921
920
919
919
916
914
914
916
913
918
918
916
917
913
908
903
899
898
896
894
897
897
895
899
897
894
891
891
890
890
890
890
893
891
894
895
891
889
892
889
888
888
891
891
894
897
897
899
898
898
899
898
902
902
902
909
916
930
947
977
1018
1080
1148
1222
1291
1341
1358
1335
1266
1157
1029
901
790
744
751
790
840
884
916
933
935
930
921
913
907
905
905
907
905
911
913
914
915
916
914
914
914
911
912
909
910
909
911
913
914
916
919
917
914
916
916
914
914
915
915
916
918
920
920
919
916
916
914
913
912
914
912
914
917
919
920
918
918
917
918
915
917
916
918
920
922
922
923
923
922
920
920
919
918
920
923
921
922
924
925
925
924
925
924
924
924
924
927
928
930
932
933
932
931
931
931
929
931
930
932
935
936
937
935
938
936
931
932
933
931
933
933
933
936
936
936
933
930
932
931
930
926
925
924
923
923
925
921
917
916
913
908
905
905
900
899
899
897
899
897
896
894
894
889
887
885
884
886
888
889
890
887
887
887
885
883
884
885
888
888
888
890
894
892
895
895
891
894
892
891
892
895
896
899
900
902
901
900
899
897
895
896
897
896
897
901
901
899
901
901
898
897
895
895
895
895
895
896
899
896
896
896
893
892
893
892
888
889
891
890
893
893
892
891
890
889
888
887
887
887
889
889
891
891
891
888
886
888
886
887
885
887
889
890
890
892
890
888
888
886
884
885
885
886
887
889
889
890
891
891
888
885
887
884
886
887
889
892
893
896
895
900
901
900
901
903
906
908
909
911
913
915
915
918
917
917
916
911
910
914
915
912
914
920
917
917
912
909
906
901
896
894
892
892
893
895
893
890
891
887
890
888
888
889
888
888
890
892
891
890
890
889
888
889
888
889
892
892
895
897
895
895
896
895
896
897
898
899
903
904
907
913
921
938
964
1002
1052
1120
1198
1273
1336
1364
1348
1279
1167
1039
911
798
745
740
771
818
864
900
919
928
927
920
914
910
904
901
903
905
908
910
909
913
911
910
910
910
908
908
907
908
911
912
913
913
914
914
914
913
909
908
910
912
911
913
915
915
914
914
910
911
911
909
908
911
912
912
914
913
914
914
916
915
913
913
911
915
917
916
916
919
919
918
918
918
916
915
917
917
921
922
924
921
925
926
924
922
922
921
922
923
927
927
929
931
928
931
930
929
928
928
931
931
933
934
934
940
939
940
937
937
936
934
940
939
942
941
943
944
945
945
941
942
940
942
940
941
944
946
949
947
947
943
940
938
934
933
929
927
926
922
921
921
917
914
910
906
905
901
900
899
902
900
900
901
899
895
893
893
891
891
891
894
893
894
897
895
896
894
894
894
892
893
896
897
898
900
903
903
904
905
904
902
902
903
904
905
907
909
910
910
912
912
910
910
908
910
909
911
909
912
914
916
914
913
909
911
908
908
910
909
909
909
911
911
910
910
908
907
906
904
902
905
905
907
907
910
908
907
904
904
905
904
903
904
905
906
906
908
905
906
904
902
902
904
902
903
905
907
910
908
906
905
904
906
902
902
903
904
904
905
906
908
909
907
907
908
908
906
906
909
908
911
912
912
911
914
911
912
909
911
910
910
911
912
913
913
915
916
917
918
917
919
920
922
924
929
933
936
939
939
941
941
942
940
942
940
939
941
941
941
941
941
941
942
938
937
932
935
933
932
929
928
927
922
922
923
915
917
921
919
921
921
923
923
922
921
918
918
917
917
917
917
917
920
922
921
922
925
924
921
925
925
928
930
934
936
939
942
950
962
982
1013
1059
1118
1194
1272
1340
1377
1371
1307
1196
1068
940
819
770
777
815
867
912
942
959
964
962
959
950
944
941
941
941
945
946
950
950
951
949
948
947
950
946
944
946
945
947
950
952
951
952
951
950
952
950
950
948
951
953
952
954
957
956
958
955
956
955
955
952
950
956
953
956
959
958
957
958
957
954
951
956
955
959
959
960
964
964
965
965
962
960
959
957
961
963
966
968
968
970
970
968
968
968
966
968
967
968
971
973
978
978
978
978
977
977
975
978
977
981
982
983
984
981
984
984
982
981
980
978
979
979
981
981
984
986
986
984
982
980
982
984
981
980
981
982
980
979
976
972
969
963
965
960
958
956
956
955
955
952
948
943
945
940
940
938
939
938
938
939
940
939
938
938
937
933
933
933
934
936
937
938
942
940
940
938
939
936
935
937
938
939
940
942
944
944
945
943
943
942
945
944
945
944
945
946
949
948
948
946
945
946
943
946
946
945
946
946
945
948
944
944
944
941
940
938
941
941
942
943
945
944
943
942
941
939
937
937
939
941
941
942
942
940
943
941
939
937
935
936
937
937
939
934
938
941
941
940
937
936
934
932
935
936
938
938
941
939
940
937
938
934
933
934
935
936
937
938
939
938
936
937
935
937
932
934
933
933
934
937
938
936
935
936
936
933
933
932
935
937
939
942
943
944
948
948
948
948
952
955
955
959
963
963
965
968
968
967
966
960
960
958
958
960
961
964
963
960
957
955
950
946
942
938
936
936
936
939
940
939
939
939
937
935
933
931
931
933
933
936
937
938
938
936
936
933
934
932
935
937
940
943
944
944
946
947
948
948
950
956
966
987
1018
1064
1126
1199
1278
1344
1382
1384
1342
1253
1133
1005
881
806
782
798
840
888
929
956
968
968
965
959
952
949
949
947
949
949
952
949
950
950
952
954
954
955
955
955
956
953
953
952
949
952
953
953
956
957
958
957
955
956
955
954
954
954
954
954
955
956
957
954
957
953
956
950
952
952
954
957
955
954
957
959
958
957
957
956
954
955
956
956
957
958
962
962
957
957
958
959
957
957
956
958
960
961
965
966
967
965
965
967
965
963
965
968
969
970
969
968
970
971
971
969
968
969
969
972
973
975
975
978
974
975
972
973
969
970
971
970
973
974
975
973
972
971
972
973
971
969
968
968
966
965
962
958
957
952
946
943
941
938
937
934
932
932
931
931
931
926
923
923
920
921
921
921
923
924
925
923
923
922
919
920
919
918
918
920
921
922
924
925
925
924
923
921
922
923
923
926
923
925
930
929
930
927
926
926
925
926
925
926
928
930
930
929
932
931
930
925
924
925
924
924
925
924
928
926
925
921
918
916
917
917
918
918
920
919
923
923
920
918
918
918
916
915
915
916
917
916
918
917
916
916
916
915
913
913
913
914
916
913
915
913
913
911
911
910
906
910
911
913
916
919
923
924
926
926
926
925
925
926
928
932
935
940
941
944
943
940
936
934
937
933
938
939
939
941
942
941
940
933
928
920
917
914
911
910
910
912
914
916
916
912
911
909
908
905
906
906
906
909
908
909
907
905
904
903
905
904
907
906
908
910
913
912
915
915
915
913
916
914
917
919
923
928
935
951
973
1007
1057
1123
1199
1272
1332
1366
1355
1297
1195
1067
939
821
759
750
782
829
875
910
931
941
941
935
929
925
924
922
920
920
920
921
925
926
928
929
928
927
926
924
925
924
925
926
927
930
932
930
930
930
929
929
926
927
926
929
929
931
933
932
930
929
927
928
925
923
926
925
928
929
927
929
933
932
930
928
928
928
926
929
930
932
934
933
934
932
932
932
930
930
929
932
933
934
935
939
938
936
937
937
937
935
937
940
940
944
946
946
946
944
943
942
942
943
943
945
948
948
951
953
951
950
951
949
950
949
951
952
955
956
955
956
955
954
952
952
950
947
951
950
953
953
952
951
949
947
942
936
931
930
928
927
924
921
919
914
912
909
906
905
903
899
899
901
900
897
898
899
899
897
896
892
894
893
896
898
898
899
901
900
902
899
899
898
898
898
898
900
901
901
904
907
907
908
903
904
903
903
902
905
908
910
911
911
908
909
907
906
904
904
904
903
904
905
907
906
906
906
903
903
898
896
897
900
900
903
901
902
902
902
898
898
894
896
893
897
896
894
898
900
899
898
898
895
893
892
891
896
898
899
898
901
902
902
900
901
901
903
903
907
911
916
920
922
923
922
926
925
923
922
918
918
920
925
925
928
927
926
922
921
919
915
911
910
907
905
900
899
898
893
894
895
892
893
896
894
891
893
895
895
894
893
892
886
889
887
891
889
889
891
896
895
895
894
895
894
894
894
895
895
899
900
906
907
908
910
908
911
917
927
938
964
998
1045
1106
1176
1252
1318
1361
1367
1324
1239
1115
987
859
760
733
754
799
849
887
914
925
929
925
920
911
907
907
911
913
912
911
913
910
911
910
911
913
914
915
916
917
918
916
917
913
913
915
916
917
919
919
919
917
919
916
916
914
914
915
916
917
918
921
923
920
920
921
920
921
918
919
921
921
922
927
925
924
924
921
923
922
922
924
923
926
927
928
928
929
929
928
929
927
925
923
929
930
932
933
934
933
935
935
933
932
933
936
936
939
942
945
945
947
947
946
946
947
944
945
948
950
953
954
956
952
953
954
951
950
951
952
955
956
955
959
958
959
957
956
956
952
950
949
948
948
944
945
943
938
932
928
925
920
918
913
910
908
907
906
906
902
901
899
898
893
892
891
894
894
894
896
894
894
894
892
891
892
891
894
892
894
895
896
898
898
899
897
897
895
896
900
900
902
902
905
908
907
908
906
905
903
902
900
905
906
907
909
910
910
908
906
902
900
898
898
898
899
900
902
904
904
904
903
901
899
897
898
900
900
903
902
901
900
898
898
896
894
894
894
895
894
895
898
902
898
899
895
893
892
894
897
897
896
899
899
900
899
901
897
900
895
896
898
899
902
901
901
902
901
901
900
898
896
901
900
898
900
900
902
904
903
902
903
902
900
898
900
899
904
903
904
907
905
904
904
904
902
903
904
909
916
918
922
927
926
927
930
929
931
931
936
938
938
938
937
940
938
938
936
936
934
934
932
934
933
933
931
929
925
922
921
915
914
914
913
913
911
914
915
917
917
917
915
914
913
912
911
911
911
911
915
918
915
918
918
917
916
915
914
918
921
924
926
929
928
930
932
932
931
930
932
935
939
945
955
973
995
1029
1076
1135
1205
1279
1344
1379
1372
1313
1204
1076
948
821
772
777
814
863
912
946
965
970
969
962
954
949
945
943
945
947
948
951
952
953
955
955
958
955
956
955
955
952
954
954
956
956
960
961
960
963
959
958
956
957
956
959
961
964
963
965
966
962
960
962
962
962
961
960
962
966
966
967
967
967
968
967
966
965
965
966
966
969
971
973
969
972
971
971
971
971
972
968
972
976
974
979
981
981
979
980
981
981
984
984
987
987
990
990
991
990
990
988
991
990
989
995
996
996
999
1001
1002
1000
999
998
995
995
996
996
997
998
1001
1003
1004
1003
1003
1003
1002
1001
1001
1000
1000
999
1000
998
997
994
992
988
982
980
977
973
972
971
969
968
968
965
966
964
962
960
959
954
956
959
960
961
961
960
959
955
956
954
955
958
958
959
964
965
965
967
967
968
966
963
961
967
967
969
974
971
973
974
973
970
969
971
970
970
971
973
976
977
976
978
974
974
973
971
971
971
975
972
974
976
973
975
974
973
970
969
967
968
970
969
973
973
972
974
971
971
970
966
966
964
967
968
969
971
970
968
967
966
966
965
968
968
966
965
965
969
970
970
970
968
967
969
968
966
969
966
966
969
972
970
969
966
964
963
965
965
966
968
971
971
970
970
970
966
967
967
966
968
968
969
968
968
969
971
969
966
966
965
965
965
966
968
968
974
976
978
976
979
981
982
983
986
989
990
994
996
999
1000
998
997
992
993
989
993
991
994
995
995
995
994
992
989
985
982
978
975
974
973
971
971
971
970
972
966
967
965
965
965
967
968
968
970
969
969
967
964
964
964
964
964
967
969
967
971
970
972
969
967
968
968
970
975
977
979
984
984
990
997
1014
1040
1083
1141
1212
1288
1353
1394
1398
1352
1256
1128
1000
875
816
811
846
895
944
982
1000
1010
1009
998
991
981
979
976
978
982
985
988
989
991
991
990
989
987
985
986
984
985
989
989
987
989
990
990
991
989
992
988
988
987
987
989
993
992
994
991
992
991
988
985
986
986
988
988
989
992
988
991
989
986
986
985
986
988
988
987
988
989
991
989
989
988
988
988
989
989
990
990
992
993
994
997
995
996
995
993
994
994
995
998
999
999
1001
999
998
999
998
999
999
1001
1001
1001
1005
1005
1005
1003
1002
1003
1001
999
998
999
1001
1000
1002
1004
1005
1002
1002
1002
1004
999
1000
1000
1001
1000
1001
998
995
992
988
984
977
974
972
968
966
965
966
965
963
960
959
957
954
950
949
950
950
952
954
954
955
954
950
950
945
944
946
945
945
952
952
952
954
952
953
951
950
949
953
954
954
955
952
956
955
956
954
954
953
952
955
954
956
956
956
955
957
957
955
955
952
949
948
950
948
950
951
949
949
948
948
948
945
945
942
942
944
941
943
947
944
946
944
942
939
938
936
937
938
936
938
940
938
941
937
937
937
934
934
934
936
936
936
937
936
938
937
935
935
934
932
931
930
934
937
942
942
945
949
948
949
950
952
955
954
959
963
965
967
965
963
961
959
957
957
955
957
958
957
957
955
953
950
944
940
935
931
927
928
929
933
933
932
931
931
929
926
923
923
921
921
925
924
925
926
926
924
924
922
922
921
920
922
924
926
926
928
929
930
929
928
928
929
933
933
938
944
956
970
999
1037
1087
1152
1222
1290
1343
1366
1353
1298
1206
1083
955
844
782
770
795
842
888
927
948
959
958
954
945
939
934
933
931
935
936
937
940
941
940
940
938
940
940
937
936
937
936
939
939
940
942
941
942
942
942
941
938
938
938
939
940
941
942
943
941
941
939
939
938
938
938
940
940
941
943
942
942
942
940
939
939
938
937
939
941
942
946
944
945
944
945
944
942
941
942
943
945
946
948
949
951
949
949
947
946
943
947
947
945
949
953
954
956
955
954
954
954
951
952
957
955
957
959
961
960
960
958
957
953
954
956
957
956
959
961
961
960
958
958
954
955
954
955
955
957
959
955
955
954
951
948
943
940
935
934
934
931
928
927
925
924
921
917
915
909
908
909
906
906
906
906
906
903
904
902
899
897
897
897
897
897
899
901
902
903
900
897
900
897
897
899
901
902
905
906
906
907
909
907
906
904
904
905
905
906
906
910
912
913
914
913
911
908
906
909
909
909
910
912
911
909
908
909
906
905
903
903
904
904
909
908
907
907
905
903
900
902
900
902
902
904
903
903
906
905
905
902
901
899
897
898
897
899
898
900
899
898
899
897
896
895
891
894
894
897
898
900
900
902
901
900
895
894
895
895
896
895
897
899
899
901
899
899
899
899
900
901
906
908
912
915
919
919
921
922
924
924
926
927
925
928
925
925
928
928
927
925
924
923
919
917
917
918
913
911
908
907
903
900
894
893
893
895
894
897
897
900
899
897
894
893
892
890
889
889
888
891
892
892
892
895
895
893
893
891
891
894
897
899
902
903
905
907
906
909
908
909
912
921
935
960
993
1038
1096
1163
1237
1304
1345
1351
1309
1219
1095
967
839
758
733
755
801
848
891
916
929
932
928
921
913
913
912
910
910
911
911
909
909
907
907
908
909
912
911
911
911
910
907
907
908
906
909
910
911
911
910
912
912
911
911
907
908
909
909
910
911
913
913
914
912
913
911
911
911
910
910
911
912
914
914
916
915
913
912
914
912
910
911
912
911
915
919
919
919
918
918
916
916
918
918
920
918
922
926
926
924
923
921
922
922
924
924
926
928
930
933
932
933
933
932
931
930
932
931
936
937
939
939
938
942
941
940
941
939
939
941
942
942
944
941
944
944
940
939
936
932
929
924
923
921
919
919
918
911
911
906
900
898
897
895
894
893
894
894
892
889
888
884
884
884
881
882
883
883
885
886
883
883
883
881
878
880
880
880
881
884
888
888
888
888
888
887
886
888
887
888
891
889
891
894
894
896
894
892
889
891
891
892
892
893
893
895
893
893
889
888
887
889
888
888
888
888
890
889
886
884
884
887
885
884
883
886
886
885
885
887
885
884
882
882
881
880
880
880
883
881
884
885
885
884
881
882
879
879
879
879
881
881
881
882
884
882
881
881
879
878
881
880
885
888
890
894
896
897
896
899
899
902
903
906
912
913
912
914
910
910
909
906
908
907
909
908
909
909
908
908
905
903
898
892
886
885
881
879
877
878
882
885
883
880
880
879
875
874
874
873
874
874
878
881
878
880
879
877
876
874
876
877
878
878
882
881
880
882
882
883
883
884
888
889
891
896
902
911
929
958
997
1052
1122
1204
1275
1323
1330
1290
1195
1067
939
811
728
707
733
778
830
871
895
907
910
908
903
898
892
890
888
887
889
890
891
894
895
895
894
896
894
892
889
889
890
890
892
897
897
896
897
897
895
893
893
891
894
895
896
898
897
899
898
898
899
895
898
895
894
895
898
899
900
903
902
902
901
900
899
899
899
901
903
903
906
907
904
905
904
902
902
903
901
902
903
904
908
911
911
910
909
908
907
906
908
909
912
911
915
919
918
918
917
919
914
915
918
917
922
921
923
923
924
923
928
927
925
925
925
925
926
927
927
930
930
931
928
928
924
922
920
918
915
913
909
906
904
902
898
892
888
882
881
881
878
877
876
876
876
874
875
869
870
869
866
868
868
869
871
871
873
871
871
869
865
865
867
868
871
874
873
878
877
876
875
872
872
871
873
873
874
875
878
878
880
879
878
877
877
876
877
875
878
879
879
884
878
878
875
876
874
874
872
871
872
871
875
875
873
873
870
872
871
869
867
867
868
871
870
872
873
871
869
868
865
861
859
862
864
863
865
869
869
869
868
868
866
866
864
868
868
870
875
878
879
882
881
881
882
884
884
885
890
893
896
900
901
901
898
897
892
888
889
890
893
894
896
894
892
892
889
885
881
878
870
868
864
864
865
866
864
867
866
865
861
856
858
857
857
857
860
862
859
859
857
857
859
859
859
859
861
861
862
864
863
865
866
866
867
869
870
870
875
875
878
884
891
908
927
964
1014
1080
1156
1234
1291
1316
1300
1231
1116
988
860
752
703
705
741
789
835
867
886
891
891
885
883
877
874
873
872
873
874
877
877
879
879
881
881
880
879
877
878
876
879
881
882
885
882
882
879
879
880
876
878
878
878
880
883
883
883
884
884
884
881
881
882
885
886
884
884
883
883
884
885
884
883
882
883
881
883
884
883
888
889
887
890
887
886
882
883
883
885
887
891
894
897
895
896
895
894
893
893
891
896
896
900
903
902
905
903
905
902
903
903
902
902
904
907
906
907
906
907
906
906
906
906
906
906
911
910
910
908
912
911
908
908
903
906
904
902
903
902
900
898
894
889
885
878
874
871
868
867
864
864
863
861
862
859
857
856
853
850
851
853
854
855
854
855
853
851
852
851
850
851
851
851
849
853
855
856
856
856
853
854
853
854
855
856
858
859
862
862
860
863
858
859
858
859
859
856
860
859
860
861
862
858
857
856
857
852
855
855
856
856
858
857
858
855
855
851
850
850
851
852
852
852
853
855
855
853
852
853
849
848
849
850
851
853
854
854
857
857
856
858
860
858
860
862
866
867
871
874
877
880
879
879
879
877
874
873
877
877
880
880
879
877
874
870
866
863
859
857
854
851
851
847
847
847
845
844
843
844
841
841
842
844
843
843
844
845
842
841
840
837
838
840
841
840
846
846
843
842
842
843
840
842
844
847
852
855
860
860
858
860
864
867
883
902
935
987
1057
1142
1229
1294
1319
1287
1187
1059
931
803
693
688
730
784
838
875
892
895
886
874
862
855
853
855
859
863
866
867
865
868
863
863
864
861
860
863
868
866
869
871
865
865
864
866
865
865
865
863
866
868
870
873
871
869
868
868
867
868
868
868
871
869
873
873
872
870
871
870
870
871
871
872
874
872
877
876
877
877
878
876
875
875
875
877
877
879
879
884
884
884
883
883
882
882
882
882
886
885
891
896
893
896
896
895
894
893
893
894
896
896
899
901
900
902
901
900
902
899
898
900
901
905
904
905
905
906
902
901
899
896
895
895
893
889
887
885
883
879
876
872
867
862
859
857
858
856
853
854
851
851
849
846
846
844
842
842
843
846
847
847
847
846
846
846
844
843
844
843
846
846
847
851
850
851
849
851
847
849
849
851
852
856
855
857
856
856
856
856
855
855
856
855
856
855
857
857
858
855
855
852
852
853
853
854
853
853
856
856
855
853
855
854
851
849
849
850
851
853
852
855
855
850
852
851
849
850
848
846
847
848
850
852
851
850
848
847
846
846
844
847
845
848
851
852
851
852
849
852
848
849
847
849
849
850
854
857
857
858
860
861
862
860
865
864
866
871
875
879
881
884
886
883
880
879
879
878
881
881
883
885
883
884
882
878
877
874
871
868
866
864
860
860
855
856
851
852
852
851
851
851
853
853
853
853
851
852
851
849
849
847
846
848
849
855
855
857
856
853
857
854
854
853
856
857
858
859
864
868
870
874
876
880
893
913
944
993
1056
1133
1214
1284
1326
1320
1263
1153
1025
897
769
702
700
731
778
833
866
888
896
894
884
878
875
869
869
869
874
880
877
878
876
873
875
873
875
873
876
877
877
879
878
878
878
877
875
872
872
875
878
881
880
882
882
881
880
879
877
876
875
876
878
875
882
880
882
882
880
877
878
879
879
882
882
881
884
883
882
886
886
887
884
883
884
885
888
888
890
893
892
893
893
891
890
890
891
893
893
897
898
899
898
897
899
898
897
899
901
901
902
905
907
910
909
912
909
910
909
909
907
908
912
912
914
914
917
917
914
913
910
911
912
913
914
919
921
921
919
919
916
910
906
902
903
898
899
895
895
894
890
885
883
879
878
872
871
872
870
869
870
872
869
870
867
863
864
862
864
859
862
862
866
867
867
867
865
863
863
862
862
863
863
865
866
870
866
869
867
865
866
867
867
867
869
870
873
874
872
876
875
873
872
870
873
872
874
874
876
878
876
872
874
874
871
869
869
869
872
873
873
875
874
872
873
869
870
868
867
866
868
869
869
871
871
870
872
870
867
865
864
864
868
867
870
868
870
868
868
867
866
864
864
863
866
868
869
871
869
871
870
868
866
866
865
864
865
869
869
869
870
867
868
866
866
866
866
865
867
867
868
873
872
870
870
871
871
873
875
877
880
883
888
890
891
894
894
896
896
896
896
897
896
897
898
901
899
900
897
898
896
891
890
889
887
887
885
882
879
876
873
874
871
871
870
871
872
871
873
873
873
874
872
870
868
867
866
866
867
866
869
873
874
873
873
873
872
872
874
878
877
882
885
889
892
894
896
900
910
930
961
1008
1069
1142
1222
1293
1339
1340
1283
1171
1043
915
787
710
716
758
813
864
897
914
916
910
901
892
885
885
887
890
892
896
896
896
896
896
894
893
893
893
896
898
900
901
902
901
900
897
898
897
896
897
897
900
897
899
898
902
900
899
898
897
894
896
900
900
902
903
903
904
902
899
899
900
898
899
903
902
903
903
905
905
903
904
902
902
901
903
903
906
905
908
911
911
911
909
908
908
909
908
911
911
913
915
916
915
916
915
917
915
915
918
919
917
920
923
925
924
925
925
924
924
924
924
923
925
927
929
930
928
929
927
926
926
925
925
925
929
930
931
927
926
923
919
918
912
907
906
905
903
901
900
898
896
892
890
887
886
882
882
883
884
882
882
880
882
881
881
879
878
875
878
877
879
882
882
884
884
881
883
881
881
879
881
883
882
883
888
888
889
888
887
885
884
884
884
886
888
890
893
894
893
895
891
892
889
890
890
889
892
892
894
893
891
891
888
888
884
885
885
889
888
891
890
891
887
888
884
884
883
882
884
883
886
887
889
889
888
887
887
887
885
886
884
886
889
890
892
889
889
889
889
887
891
894
895
898
901
907
910
912
913
914
916
917
916
914
916
916
916
918
920
922
921
920
920
916
911
906
902
899
895
898
895
894
893
892
893
892
890
893
892
894
892
890
891
891
894
894
894
891
891
892
893
895
893
897
898
901
900
901
899
904
902
903
903
905
908
911
915
920
925
933
947
968
995
1037
1092
1162
1241
1309
1357
1362
1313
1203
1075
947
819
741
747
792
852
905
940
955
955
951
939
927
922
919
920
922
925
930
937
938
937
937
935
932
932
931
933
935
937
937
941
941
941
940
938
939
940
938
938
938
940
942
943
948
947
946
944
942
941
941
943
943
944
947
949
951
950
951
951
950
946
946
948
948
949
952
956
957
959
957
958
956
954
954
958
955
959
961
965
964
967
965
968
966
965
966
968
971
973
973
978
979
978
977
978
976
977
977
977
977
981
984
985
988
987
986
985
985
986
985
986
988
987
987
991
990
990
991
990
992
987
986
986
984
979
982
978
978
974
972
968
963
958
954
949
949
945
948
946
945
944
943
940
940
938
937
937
936
938
939
940
940
940
941
938
942
939
939
940
940
942
945
947
947
948
948
946
945
944
943
943
944
948
949
952
953
956
954
952
950
953
951
949
952
951
951
954
954
955
955
950
952
949
949
949
950
948
951
951
952
953
951
949
947
947
946
948
947
944
949
950
950
950
948
945
945
945
943
943
944
947
946
948
948
949
950
950
954
955
956
960
960
962
966
969
972
970
975
978
979
978
975
974
973
975
975
977
978
981
980
977
976
972
970
965
962
959
957
954
953
951
947
946
947
944
943
941
944
943
945
944
946
943
944
941
941
941
941
940
940
942
941
942
944
943
943
944
943
944
943
947
946
950
951
954
957
957
960
961
962
966
974
995
1025
1064
1120
1186
1261
1330
1381
1397
1370
1291
1171
1043
915
814
783
803
850
903
946
975
988
989
984
977
970
966
963
966
967
969
970
969
967
967
965
965
964
967
966
969
971
971
971
969
968
967
966
967
966
970
971
971
973
971
971
971
971
969
970
970
969
968
972
971
973
971
972
974
971
972
972
970
970
973
974
976
978
979
978
977
976
975
973
974
978
978
979
978
981
979
978
978
976
978
976
979
981
983
984
986
987
988
988
984
986
984
984
987
987
990
989
992
994
993
995
997
995
995
996
995
998
997
999
1001
1003
1003
1000
998
997
997
998
999
999
1000
1001
1004
1004
1003
1003
1002
1000
997
993
990
987
986
985
981
979
974
972
967
964
960
953
954
951
952
950
949
949
946
946
944
938
939
937
933
936
937
937
937
939
942
939
939
937
936
934
935
936
936
939
941
941
942
942
938
940
940
941
938
942
944
944
946
947
947
946
946
943
945
945
946
946
947
947
949
948
947
950
947
946
945
943
944
940
943
943
941
945
943
942
940
939
935
937
933
935
936
937
938
938
938
936
936
934
933
932
932
932
934
935
934
938
936
934
931
933
934
932
928
928
931
931
932
931
932
935
934
933
934
936
938
939
945
947
946
951
953
954
952
954
955
955
957
962
965
965
962
964
961
958
960
960
958
957
955
955
953
952
952
952
948
943
935
932
927
925
921
921
923
922
922
925
926
926
925
925
922
917
917
918
920
922
922
922
921
920
922
921
921
921
920
918
922
922
926
930
928
929
927
927
926
927
931
935
940
948
962
986
1014
1054
1109
1173
1242
1305
1345
1356
1319
1233
1119
991
863
786
761
779
821
868
910
939
953
956
955
947
942
937
932
932
931
931
931
934
938
939
939
939
937
937
937
937
935
934
934
935
935
938
941
943
940
938
939
939
936
936
937
936
936
936
939
942
941
938
937
937
934
936
935
935
937
939
938
941
941
941
938
937
938
936
937
935
940
939
942
945
944
944
942
940
940
941
937
939
942
945
945
948
948
949
947
945
948
946
948
948
949
952
953
955
954
955
958
954
954
955
953
955
956
955
959
962
962
961
962
961
959
958
957
956
956
959
960
961
964
962
961
961
960
957
955
950
950
949
946
944
941
941
937
932
926
922
920
920
917
917
915
914
912
911
908
906
905
904
900
903
903
904
903
908
906
907
904
901
899
900
901
897
901
904
903
906
904
907
905
904
903
903
902
903
905
906
908
910
912
912
911
908
910
909
907
909
909
911
912
913
912
913
910
910
911
908
906
906
909
905
906
906
908
906
904
901
902
901
901
900
900
900
901
904
903
901
899
897
896
898
897
896
897
898
900
901
901
900
900
898
898
897
894
896
895
898
899
898
899
897
896
897
896
894
892
893
895
895
895
898
897
897
894
895
896
896
895
896
899
901
906
909
909
912
914
911
913
915
915
919
924
926
929
928
928
927
923
922
920
919
919
921
921
921
919
922
919
917
910
906
900
894
890
890
889
891
892
894
894
894
890
888
885
885
884
888
888
886
888
889
888
886
889
887
887
885
884
887
886
888
889
890
892
893
895
894
895
897
898
900
902
905
915
930
950
987
1039
1102
1178
1253
1307
1335
1312
1237
1116
988
860
762
726
743
785
834
879
908
923
930
925
919
913
907
905
903
903
903
903
905
904
905
909
910
907
908
908
907
908
907
906
907
908
909
909
909
909
911
908
908
908
905
904
904
905
906
908
908
911
909
911
909
909
907
908
904
908
910
910
912
914
913
911
911
909
909
910
909
910
912
913
915
915
916
915
914
913
915
913
915
918
918
918
922
923
923
922
921
921
919
919
920
921
924
924
927
929
928
926
926
926
926
927
925
926
928
930
933
932
930
930
927
928
925
925
927
928
930
931
933
933
933
931
928
926
923
918
917
917
916
913
914
911
905
902
901
896
893
889
887
887
886
888
887
888
883
884
881
881
881
877
876
879
879
878
882
885
885
884
882
884
880
882
882
881
884
884
887
889
886
888
885
883
883
881
881
885
889
891
891
892
894
893
892
892
887
887
886
889
888
891
892
890
889
888
887
884
881
883
882
886
886
886
888
885
885
888
884
882
880
881
879
880
881
881
882
881
880
881
879
877
875
875
876
877
877
878
881
878
880
878
875
876
872
873
874
874
876
879
879
879
880
878
875
876
875
877
877
878
881
884
887
889
890
888
888
891
893
895
897
902
905
908
912
914
914
911
907
905
904
904
904
906
903
903
899
900
895
891
886
879
875
875
877
876
875
874
876
879
877
877
875
872
871
869
869
867
868
870
871
874
871
874
875
875
873
873
872
874
876
878
879
883
885
886
884
883
885
888
897
915
945
984
1041
1110
1186
1260
1311
1329
1296
1208
1080
952
824
723
713
747
803
854
890
911
917
910
906
897
892
890
891
893
894
898
898
895
895
893
895
894
896
898
897
903
902
899
899
899
899
897
898
898
901
900
902
904
902
902
901
899
898
897
897
899
900
903
905
907
908
907
906
905
901
902
903
902
905
908
909
910
910
910
905
907
907
904
906
910
910
911
914
915
914
914
915
913
914
914
915
914
917
918
924
926
926
923
923
920
919
917
919
923
926
928
929
932
931
930
931
930
931
929
930
928
933
931
935
935
932
934
932
933
932
931
932
929
931
934
937
936
937
937
936
936
933
932
933
931
930
927
928
924
922
920
915
913
909
906
904
902
902
900
903
901
900
897
896
895
893
892
889
892
892
897
897
898
898
896
895
894
894
894
896
897
896
897
898
899
901
900
901
902
901
901
901
903
905
907
906
908
906
911
910
911
911
908
908
907
908
911
912
914
913
912
911
906
904
904
906
906
911
912
911
911
910
910
908
906
904
903
903
903
906
908
908
910
912
911
910
909
908
907
908
910
912
916
918
921
923
925
925
926
926
928
931
934
938
942
944
946
945
943
941
938
941
940
938
941
940
941
943
942
938
937
932
927
922
917
911
912
915
915
915
916
918
917
914
913
913
910
911
911
910
913
915
914
916
918
915
912
914
913
912
915
919
919
921
927
926
927
930
933
930
934
938
956
979
1014
1063
1125
1197
1268
1331
1368
1369
1327
1240
1115
987
859
783
766
791
841
892
935
957
966
966
960
954
948
945
944
946
949
950
951
950
948
948
949
950
951
952
956
956
955
956
955
951
950
950
952
953
955
957
958
958
956
959
959
956
955
956
957
960
962
963
963
964
963
961
960
960
961
961
961
963
964
963
967
967
970
968
969
967
967
968
965
970
971
971
974
977
977
976
974
975
974
971
974
976
975
979
983
981
981
981
982
982
981
980
982
985
986
990
991
991
991
990
992
990
990
994
995
997
999
1000
1003
1002
1001
1001
1000
1000
999
999
1002
1001
1002
1003
1002
1003
1003
999
997
997
992
989
989
988
987
986
983
981
978
974
970
966
962
960
957
957
956
955
955
952
950
948
945
943
940
937
941
943
942
943
946
944
946
945
941
942
941
941
941
941
944
944
950
949
951
948
950
950
947
944
949
950
952
955
957
956
958
959
956
957
955
955
957
957
960
960
961
961
959
961
959
956
952
952
952
952
955
956
954
955
955
955
954
951
949
948
949
951
949
950
952
950
950
950
947
948
945
944
947
948
947
948
950
950
951
949
948
947
947
942
944
946
949
949
951
951
953
950
949
949
951
953
956
961
964
967
969
969
971
974
977
979
979
977
978
978
976
978
978
979
979
977
972
971
969
964
961
958
955
953
952
950
950
948
946
943
945
943
943
944
944
946
944
946
942
941
941
940
939
938
939
940
944
943
944
947
946
945
946
946
946
947
949
952
954
954
958
956
958
961
963
966
978
999
1030
1078
1144
1216
1294
1354
1382
1360
1288
1169
1041
913
813
782
795
840
894
939
968
983
987
982
972
965
958
958
958
963
966
966
968
967
967
965
963
962
962
963
964
966
968
969
969
967
966
964
963
962
962
965
967
968
969
969
968
968
966
965
966
963
964
967
966
966
967
967
967
967
966
965
965
962
964
966
966
969
969
971
971
969
969
967
966
967
968
966
969
971
972
973
975
971
970
969
968
968
968
971
970
972
975
975
978
978
976
975
974
974
977
977
979
980
983
982
983
980
979
980
980
980
983
982
983
985
987
987
987
988
985
984
985
983
983
985
987
986
987
990
987
989
989
986
984
983
979
982
982
979
977
976
975
971
966
960
957
953
951
950
947
946
945
944
942
940
937
936
934
934
931
932
933
934
932
934
935
932
931
928
928
926
926
925
930
929
933
933
933
932
931
929
932
929
929
930
934
934
937
936
934
935
933
934
934
933
936
935
937
938
939
938
938
937
936
934
932
934
933
934
935
935
936
935
936
932
932
931
931
929
930
930
930
929
930
929
929
929
924
923
923
922
921
922
921
923
928
927
927
925
922
923
920
916
920
922
923
925
926
928
925
928
926
929
929
930
934
935
938
940
945
946
948
951
952
954
952
952
951
948
949
951
949
954
951
949
948
945
940
939
937
934
931
929
927
924
919
921
917
917
918
915
914
913
913
915
917
913
912
914
912
911
910
907
906
910
910
912
915
914
913
916
915
916
915
916
918
918
922
924
927
930
934
940
946
963
992
1033
1094
1164
1242
1307
1346
1346
1289
1186
1058
930
803
748
746
783
835
883
924
945
952
950
942
934
927
924
921
922
924
928
932
933
933
929
930
929
927
925
925
923
926
927
928
927
930
929
927
928
926
924
925
927
928
927
928
930
932
932
931
931
927
926
927
927
927
928
930
933
930
930
931
928
928
927
929
928
927
928
931
930
933
931
931
930
931
931
930
930
930
935
935
937
935
935
933
934
933
933
936
936
937
939
938
943
940
942
942
938
937
939
938
935
939
942
945
945
944
946
945
941
942
942
940
941
941
943
943
942
946
943
941
942
943
942
942
941
942
941
942
939
936
935
930
925
924
920
916
917
915
912
910
908
906
904
901
900
898
896
896
894
896
893
896
895
896
895
892
891
891
889
890
890
893
890
893
895
894
894
894
895
893
893
893
892
897
896
899
898
898
898
895
898
896
895
895
896
898
897
900
902
900
900
897
895
892
891
891
896
897
896
897
899
897
897
896
893
892
890
891
887
889
890
892
890
893
891
889
888
886
886
886
887
887
889
888
890
886
890
887
883
881
882
884
883
884
885
888
889
886
888
886
883
881
881
882
885
887
886
886
888
887
886
885
884
884
882
883
886
886
890
894
897
895
900
901
901
902
904
903
911
913
914
916
918
914
910
908
908
907
909
908
907
908
909
911
908
902
900
894
884
884
878
879
877
879
880
880
881
882
881
880
879
877
877
875
876
876
877
879
879
876
878
877
878
872
871
872
875
876
876
879
884
885
886
886
886
888
888
890
893
900
910
926
953
993
1050
1122
1201
1270
1310
1301
1240
1125
997
869
751
715
731
775
825
868
896
908
911
907
903
898
897
893
892
892
893
893
894
891
893
894
898
899
900
898
899
899
897
898
895
894
895
896
898
899
901
898
896
895
894
896
895
895
898
899
901
901
904
902
901
900
898
901
899
897
897
898
898
899
902
902
902
902
901
902
900
899
899
903
901
904
905
905
906
906
904
903
904
905
905
904
907
907
909
909
911
909
911
910
908
909
909
912
914
917
918
917
917
917
914
915
910
910
910
913
913
915
918
916
916
915
914
910
910
911
908
907
909
911
914
914
918
913
911
909
906
905
905
901
898
894
892
892
890
888
885
884
882
878
876
876
877
878
875
875
873
871
869
872
869
867
871
872
871
873
874
873
874
874
874
872
870
869
870
870
871
875
876
879
880
880
879
878
877
875
875
876
875
879
881
884
884
883
880
879
876
876
876
877
878
877
880
878
879
876
874
874
873
871
872
873
875
876
876
874
872
872
868
870
870
866
868
870
873
874
874
871
871
868
868
867
868
866
868
872
872
877
878
878
881
881
883
883
884
885
886
891
897
903
904
904
900
900
897
896
895
896
896
898
899
897
898
895
893
887
883
880
875
872
869
867
869
869
868
871
869
868
867
865
864
865
862
864
865
864
864
863
863
862
859
861
861
862
860
862
863
864
869
870
870
869
870
871
869
871
871
874
878
882
882
888
899
914
936
967
1015
1077
1151
1229
1290
1323
1315
1257
1153
1025
897
773
709
705
739
790
838
874
892
902
898
893
886
882
881
880
883
882
883
884
887
887
886
885
885
884
881
884
884
886
886
888
888
890
889
888
886
888
887
886
888
888
887
891
892
892
891
892
889
888
887
889
888
891
892
892
894
893
894
892
893
893
891
890
892
892
894
892
893
895
895
892
895
891
889
889
890
893
894
896
899
900
901
899
900
900
896
896
896
900
898
900
906
907
907
907
905
905
906
905
908
911
910
912
915
916
915
912
912
909
912
911
912
914
916
916
919
918
917
915
913
913
914
913
913
915
913
914
917
918
914
913
908
906
903
900
896
892
892
891
887
887
884
880
877
873
868
868
864
864
865
865
866
864
864
864
860
861
857
855
856
857
860
860
862
863
862
863
861
861
858
858
861
859
862
861
867
868
867
866
864
865
864
865
867
867
867
871
870
874
872
870
870
867
865
866
869
870
871
873
874
874
874
871
871
870
869
868
866
866
870
870
871
870
867
866
864
865
866
867
867
864
866
865
867
868
866
866
864
862
862
861
861
861
863
866
867
866
867
865
864
863
859
860
862
863
865
866
871
871
874
876
878
876
878
877
880
883
886
887
893
895
894
895
892
890
888
888
891
890
892
891
892
892
887
885
881
876
871
868
863
864
864
862
865
865
864
866
863
861
861
859
859
859
858
859
859
862
860
860
859
857
856
855
856
855
858
860
862
867
867
865
866
866
867
869
872
872
876
881
890
909
938
980
1035
1103
1184
1255
1310
1327
1293
1205
1078
950
822
725
704
732
781
833
875
899
908
908
900
889
882
875
875
875
878
875
879
883
882
884
884
885
884
882
882
882
880
879
880
882
883
885
888
888
890
889
887
887
886
884
885
886
888
887
889
891
890
889
890
889
885
884
884
885
888
888
889
890
890
890
890
889
886
886
888
887
886
890
891
893
895
893
895
894
893
892
894
895
892
896
901
902
903
901
899
898
899
898
901
902
908
906
909
911
912
911
912
911
910
910
911
912
916
917
918
919
919
919
920
917
913
916
915
915
919
918
920
921
919
920
918
916
915
910
909
906
907
905
903
902
898
893
889
886
882
879
876
874
874
874
875
874
867
865
863
862
859
859
859
859
858
860
862
861
862
863
861
859
861
858
860
860
861
863
865
867
867
865
864
866
864
864
866
867
863
864
871
870
873
871
870
869
868
869
871
870
874
873
877
875
874
873
871
870
869
869
870
869
871
871
872
872
871
873
870
868
866
865
865
865
866
868
866
869
866
867
866
865
859
861
861
862
861
864
865
868
867
862
860
861
859
860
860
861
862
862
862
865
863
862
862
860
859
859
862
860
862
863
865
867
870
869
869
871
873
873
875
877
883
885
887
891
892
896
897
892
889
887
886
887
890
891
892
894
892
892
888
885
882
877
874
870
867
865
864
866
865
866
865
862
862
860
859
859
860
860
861
862
861
859
858
860
858
858
860
859
862
864
866
868
867
867
868
867
866
866
870
874
875
879
882
894
913
939
980
1034
1105
1190
1264
1313
1319
1268
1167
1039
911
783
715
705
737
785
831
872
895
905
904
899
891
884
878
879
878
879
882
885
885
887
887
889
888
886
884
885
885
884
885
884
887
889
890
892
889
888
888
888
888
886
887
886
887
889
893
891
892
892
888
887
888
887
888
887
890
891
891
894
892
888
891
885
886
883
884
887
888
890
892
897
894
895
895
895
895
892
895
896
897
898
900
902
901
902
902
901
899
899
903
902
906
907
910
909
908
909
909
910
908
909
909
909
911
910
913
915
913
911
913
910
911
908
908
908
912
912
915
916
915
915
913
913
910
909
908
905
904
903
903
901
895
892
887
884
880
877
875
873
874
872
873
873
872
872
870
868
865
863
864
862
864
864
867
870
868
868
866
864
861
862
862
865
866
868
871
871
870
871
870
870
866
867
868
870
872
873
876
877
878
877
875
875
877
871
874
874
874
874
877
878
877
878
875
871
872
869
869
868
871
873
871
873
874
874
871
870
869
868
866
868
871
869
870
871
869
871
870
869
867
867
864
865
865
867
870
870
870
869
867
868
863
861
862
862
863
866
868
868
866
865
864
864
863
862
865
866
868
874
880
882
883
884
884
886
886
888
891
894
898
897
897
896
896
895
896
897
894
894
892
888
890
886
884
882
877
873
871
867
865
864
863
864
864
865
865
868
870
867
866
864
862
860
861
863
862
861
864
863
865
866
864
864
864
862
862
864
867
874
876
876
878
879
879
880
885
891
909
937
977
1038
1111
1192
1266
1315
1322
1276
1181
1053
925
797
715
701
728
777
827
864
886
896
896
892
887
883
882
884
885
886
884
886
886
885
883
883
884
881
887
885
887
889
889
890
888
887
886
886
885
887
888
888
889
890
889
889
889
889
888
888
888
889
889
888
888
892
893
894
892
890
890
888
887
888
889
890
893
896
897
895
894
892
890
891
891
894
897
898
899
901
900
901
899
896
896
896
896
895
898
899
902
904
904
907
903
901
901
903
900
904
906
907
908
911
911
910
909
908
907
910
907
907
911
912
913
914
915
916
917
914
913
910
910
911
912
913
912
915
915
916
916
914
914
913
913
911
904
905
902
903
898
898
896
889
888
885
883
881
882
881
879
878
878
878
871
869
866
866
866
867
869
872
872
874
874
871
874
871
872
870
870
871
874
873
876
878
878
878
877
877
876
875
873
874
875
877
879
881
881
882
882
882
881
880
877
876
879
879
882
882
880
880
879
878
876
874
874
875
874
874
875
876
876
874
871
874
872
869
868
870
871
872
874
876
875
875
874
871
869
866
869
871
873
872
877
882
882
886
885
886
889
889
890
891
895
900
903
905
906
907
902
900
897
898
899
900
902
902
900
900
898
895
891
884
879
875
869
871
871
870
873
877
877
877
876
875
874
870
868
869
870
870
872
878
876
876
874
873
873
872
873
874
879
882
884
885
888
890
889
891
891
890
894
900
911
929
956
996
1050
1122
1200
1275
1327
1337
1295
1198
1070
942
814
733
727
758
810
857
894
912
919
917
911
906
902
901
901
902
902
905
904
902
899
899
902
904
904
906
910
910
909
906
907
906
905
904
905
905
909
912
914
914
913
911
910
911
910
911
915
914
916
917
918
918
916
915
914
915
914
914
917
917
917
923
920
922
920
921
920
919
919
921
921
922
921
924
931
929
929
925
925
926
927
929
930
932
933
933
933
935
936
936
937
936
933
937
939
941
942
944
945
948
946
947
949
948
948
951
951
951
951
954
953
954
955
952
953
953
951
953
955
955
956
960
960
959
954
956
954
953
950
950
947
944
947
945
943
941
939
933
932
927
924
921
920
918
917
916
915
915
911
909
907
905
903
903
903
905
907
910
909
907
906
907
906
905
905
904
904
907
906
909
911
911
909
909
911
911
912
911
914
916
919
921
921
919
920
921
919
918
916
919
919
922
925
926
925
923
923
921
921
920
918
921
919
919
917
921
923
925
925
922
919
920
917
917
918
918
921
921
920
922
921
919
919
917
918
917
918
922
924
924
927
930
930
932
930
933
933
936
939
943
946
950
951
955
951
951
949
944
945
945
946
948
949
950
949
946
941
938
933
927
923
921
918
918
919
920
923
919
917
914
915
914
909
912
913
915
915
920
920
920
917
915
913
911
914
914
915
917
919
922
926
924
925
925
926
926
930
930
932
935
941
952
965
983
1011
1042
1086
1139
1202
1270
1331
1370
1376
1339
1255
1129
1001
873
781
758
781
829
886
930
955
970
968
962
952
944
938
935
935
938
941
945
943
944
947
944
945
944
942
941
943
943
942
943
944
944
946
946
947
946
946
945
945
946
946
946
947
947
949
950
946
946
947
947
946
948
947
949
951
952
953
954
953
952
950
948
949
950
947
951
954
955
956
956
955
954
954
953
951
951
952
955
957
959
962
960
961
959
960
963
960
963
962
967
968
970
972
973
972
969
972
970
971
971
974
974
978
978
978
978
981
980
980
978
979
979
981
982
983
986
984
981
985
984
983
982
982
981
980
979
980
982
979
976
976
970
964
960
958
957
952
952
950
948
943
941
938
935
931
930
927
924
923
921
926
923
922
922
917
919
918
917
916
916
917
919
920
920
922
922
923
922
919
919
920
922
923
924
925
927
929
931
928
927
929
927
928
927
926
931
933
932
935
935
934
929
929
926
928
928
927
928
929
929
930
930
928
927
926
924
922
923
923
923
924
925
926
925
922
923
921
921
919
915
917
918
922
923
923
923
924
922
920
919
919
917
919
921
921
922
926
925
927
930
931
930
932
933
938
942
944
949
949
950
950
948
945
944
943
944
945
948
949
948
948
945
942
938
932
929
924
919
916
918
916
919
919
915
918
914
914
912
910
911
910
910
911
913
913
914
914
912
911
908
906
910
909
911
911
915
916
914
917
916
919
917
919
921
924
927
932
939
952
972
1007
1058
1123
1204
1282
1343
1364
1338
1255
1129
1001
873
775
743
766
809
860
901
932
946
950
946
941
935
930
927
920
922
925
927
929
930
931
932
933
932
932
930
928
927
928
928
928
931
932
935
936
937
936
932
932
931
931
930
931
929
932
931
935
937
935
933
934
931
930
930
932
931
933
934
935
934
935
934
932
931
932
932
934
935
937
938
940
940
936
937
936
935
935
935
934
937
936
942
945
945
946
941
943
942
942
942
942
943
943
947
951
951
953
950
950
947
946
950
951
952
956
955
956
955
958
956
955
954
956
956
955
957
959
962
961
960
962
962
962
958
958
957
956
956
954
951
950
948
941
938
935
929
924
923
919
917
914
915
914
910
910
906
903
902
899
897
899
901
900
904
903
903
902
899
897
897
896
893
895
897
899
900
904
901
906
903
904
903
902
903
903
905
906
908
907
910
905
903
901
904
904
906
906
909
907
908
911
910
910
908
909
907
905
904
906
903
903
905
905
906
906
903
898
900
898
898
899
899
899
899
899
899
902
900
899
896
896
895
898
898
898
899
901
902
903
903
900
902
904
904
906
910
911
914
920
923
924
927
926
926
926
924
922
922
923
925
927
926
924
924
918
918
915
914
911
907
903
899
899
894
893
893
894
892
890
892
888
887
888
889
890
890
889
888
885
885
883
883
885
885
888
885
890
889
890
891
891
891
891
891
893
895
899
901
903
907
908
914
926
947
983
1031
1102
1185
1265
1324
1347
1322
1239
1116
988
860
756
724
741
786
836
878
906
921
923
915
911
904
900
899
901
903
905
907
908
908
907
908
905
903
903
902
904
904
907
909
909
909
909
908
906
905
905
907
907
908
906
909
908
911
911
910
908
908
905
904
905
904
905
909
910
910
910
910
912
908
907
909
910
909
912
911
912
914
916
916
915
913
911
911
914
915
916
917
918
917
918
917
917
917
917
918
918
920
922
922
923
925
927
925
925
925
925
926
928
929
932
933
935
933
934
932
930
931
927
930
929
928
931
932
934
934
935
935
932
933
929
929
927
925
921
921
920
918
917
910
906
900
896
896
891
888
885
884
884
884
884
881
879
878
876
874
874
877
875
878
877
877
878
877
873
874
874
872
873
875
873
876
877
878
877
878
878
878
877
878
877
876
880
882
885
885
886
883
882
884
878
882
879
880
884
883
885
885
884
884
882
881
878
877
876
880
879
878
881
879
879
879
877
877
875
873
873
872
873
878
879
875
877
875
877
875
876
878
878
880
883
887
890
892
893
895
896
893
896
899
902
901
901
900
901
902
899
902
900
899
895
897
894
895
891
888
886
884
878
876
872
869
866
866
866
868
869
869
870
867
867
865
866
861
860
860
861
863
862
863
864
866
868
868
865
863
867
864
863
864
867
868
874
876
876
879
879
880
880
882
886
897
911
936
972
1019
1080
1150
1223
1285
1327
1333
1296
1213
1095
967
839
750
711
722
763
811
857
885
900
905
901
895
890
884
883
884
881
882
882
884
882
883
884
886
887
887
889
885
886
885
887
884
886
886
888
889
889
890
888
887
887
887
887
887
888
888
889
892
893
894
891
891
891
890
889
890
889
890
890
891
894
894
893
893
893
892
891
892
891
892
893
894
896
900
899
899
897
896
896
896
899
900
901
904
906
907
907
907
908
904
902
904
907
908
910
911
914
914
914
916
916
917
915
916
916
918
920
922
925
926
926
925
921
920
920
924
922
923
924
926
927
929
930
930
927
926
922
918
917
913
914
910
909
907
903
901
897
893
888
885
881
881
878
875
876
876
874
872
869
869
866
865
865
867
865
865
866
867
866
863
862
861
859
859
859
862
864
864
865
868
866
867
865
863
866
862
866
866
868
870
872
872
871
872
873
871
872
869
870
873
875
877
875
877
877
875
874
871
870
870
871
871
872
875
875
874
872
871
871
869
869
869
867
868
870
869
871
872
871
871
867
868
868
866
866
867
866
868
871
870
869
868
867
865
864
864
863
865
866
865
866
868
868
868
867
865
865
864
864
864
865
867
866
866
869
870
870
866
863
865
864
867
865
870
874
875
877
879
878
881
882
882
885
886
889
892
898
898
900
900
898
897
893
892
893
894
895
897
898
897
894
893
887
886
881
876
877
875
870
871
872
872
870
871
870
869
865
862
867
864
865
867
866
869
868
868
864
864
864
865
867
867
867
869
870
873
875
874
876
873
876
874
875
879
882
885
892
899
915
937
970
1017
1079
1158
1237
1305
1340
1329
1269
1159
1031
903
775
719
717
752
804
856
893
914
920
917
906
900
893
889
888
889
889
894
894
895
899
899
900
897
897
897
896
897
897
897
900
899
904
903
903
903
902
902
899
899
899
901
902
904
906
906
906
907
906
906
905
905
904
902
904
906
909
912
908
909
908
911
911
911
911
912
913
915
917
917
917
916
916
916
914
918
918
919
922
923
925
927
927
926
926
927
928
928
929
931
934
937
938
939
938
940
940
940
940
939
939
939
942
944
948
951
950
951
952
952
952
951
953
954
954
957
959
960
961
961
960
961
959
959
958
955
957
956
957
956
952
951
947
943
940
937
934
931
930
929
929
929
929
925
923
918
916
915
915
917
918
918
917
919
918
919
917
917
914
912
913
914
915
915
918
916
919
920
918
917
916
917
919
920
925
925
928
931
931
929
928
926
929
929
927
931
932
933
937
938
937
938
939
936
934
935
933
936
938
941
940
941
940
940
939
937
937
935
935
935
938
939
938
942
938
941
941
937
937
935
934
935
937
937
941
942
941
943
939
935
936
935
936
934
936
935
938
941
939
938
939
939
938
939
940
939
941
943
944
943
943
945
949
952
951
953
956
958
960
963
967
971
975
978
981
980
979
977
976
976
977
977
979
979
979
981
978
975
969
967
961
958
954
952
954
956
952
951
952
951
950
948
948
948
950
952
955
954
954
952
952
953
952
948
950
950
953
953
955
956
956
957
958
956
960
960
963
966
969
969
974
980
988
1007
1036
1084
1150
1230
1308
1366
1386
1353
1257
1129
1001
873
804
808
852
906
954
989
1005
1010
1003
994
986
980
981
981
979
982
986
985
988
991
989
987
988
987
985
988
987
986
988
989
990
992
989
992
991
990
990
990
989
989
991
989
990
992
991
993
996
995
995
991
987
989
990
992
994
994
995
995
998
993
994
994
993
996
992
994
996
996
1000
1004
1002
1003
1001
1000
999
998
998
999
1000
1002
1004
1008
1005
1007
1006
1005
1004
1004
1006
1007
1007
1011
1013
1016
1016
1019
1016
1017
1015
1013
1013
1014
1013
1018
1019
1021
1021
1019
1019
1016
1017
1014
1014
1017
1017
1019
1022
1022
1023
1023
1021
1018
1018
1013
1011
1009
1010
1010
1007
1005
1002
999
994
990
986
981
979
975
974
974
974
973
969
970
970
965
965
962
963
961
963
963
965
964
965
965
963
965
961
961
960
961
962
964
964
964
965
962
964
964
963
963
962
963
962
965
969
968
971
971
970
968
966
967
967
965
968
968
966
968
970
970
970
966
966
963
962
962
962
961
963
965
965
960
961
958
958
957
957
957
959
961
958
958
956
958
957
955
953
952
952
952
955
958
960
964
965
967
968
967
969
969
969
972
975
979
984
987
987
985
982
980
977
975
975
973
976
981
980
976
977
973
969
965
962
957
952
948
951
949
950
950
950
951
948
946
944
941
941
940
942
942
939
941
942
940
938
940
937
936
937
939
939
941
940
943
944
942
945
946
946
948
948
951
955
960
968
985
1010
1046
1097
1161
1228
1294
1348
1371
1362
1310
1217
1093
965
849
789
782
814
863
913
950
973
980
978
972
963
957
952
951
953
954
953
955
957
957
956
959
957
958
956
956
954
954
953
954
954
957
955
959
957
957
959
956
957
955
954
955
954
954
956
957
956
956
954
955
953
952
953
954
955
956
957
959
959
959
957
958
955
954
952
954
957
955
958
959
959
957
959
959
958
958
955
956
958
961
962
962
962
963
961
963
962
962
961
963
964
967
968
968
969
968
967
968
969
969
969
969
971
973
976
977
979
978
976
976
974
975
974
973
971
975
977
977
977
977
977
974
974
968
967
967
964
964
960
958
955
951
950
942
935
931
928
925
926
921
919
922
923
920
917
915
914
911
908
906
907
906
907
906
907
909
906
904
903
900
901
897
898
901
903
905
907
906
903
903
903
904
903
903
905
907
908
909
910
910
911
911
910
909
909
908
908
911
911
916
912
911
912
911
910
908
909
907
908
909
908
910
910
907
907
906
904
901
901
900
900
901
901
903
902
903
901
898
899
896
895
897
898
896
898
900
897
899
898
896
894
892
892
893
892
892
895
896
898
896
895
894
893
891
890
887
889
889
891
892
891
889
890
888
887
887
886
885
885
889
890
891
894
889
892
894
894
895
896
900
904
906
906
907
910
913
914
914
914
914
913
914
911
913
912
913
915
914
913
911
908
906
902
899
898
894
891
888
887
885
883
882
879
880
881
880
879
877
880
882
882
881
880
877
877
874
874
875
873
875
877
880
880
880
876
876
876
875
878
878
879
882
885
888
889
890
895
897
903
917
938
971
1021
1082
1158
1231
1290
1319
1315
1260
1164
1037
909
798
732
715
739
784
830
871
897
908
909
906
898
894
891
891
891
892
892
895
893
892
893
892
891
891
891
894
891
894
894
893
893
894
891
889
887
886
890
890
893
894
897
894
895
895
891
892
889
889
891
892
891
892
895
893
894
891
888
887
889
887
890
889
890
893
893
893
893
895
894
890
891
892
892
893
894
898
896
898
897
895
897
894
894
896
896
898
898
902
904
903
904
902
903
902
901
902
902
904
906
910
910
910
909
909
909
906
906
906
906
910
911
912
915
912
914
911
912
911
910
911
912
912
914
915
918
917
914
913
910
908
907
903
903
899
899
897
895
890
886
881
878
876
870
867
863
862
865
866
865
864
864
861
861
859
857
856
857
856
855
857
857
856
856
854
856
854
850
852
853
855
856
855
855
856
855
855
855
852
853
855
854
856
861
863
861
861
862
859
859
859
858
859
858
860
860
862
864
863
862
861
860
858
857
857
857
856
856
859
857
857
856
853
851
849
849
848
851
851
851
851
852
851
850
847
848
847
845
846
849
848
849
848
847
844
846
845
845
843
842
844
845
846
844
847
848
847
846
845
846
844
843
843
843
845
847
845
848
847
845
845
844
843
842
840
842
842
844
846
847
847
846
845
841
843
839
839
840
841
841
843
846
846
847
845
845
842
842
842
844
845
847
847
851
852
855
856
858
860
859
860
864
866
866
872
874
874
877
874
872
866
867
866
867
867
869
871
870
869
868
867
864
859
856
852
848
849
845
844
844
844
844
841
840
838
839
839
841
841
842
843
839
839
838
839
837
837
839
839
840
838
842
842
843
842
846
843
844
845
845
844
851
849
850
854
860
867
877
891
912
948
990
1050
1117
1186
1244
1280
1282
1239
1150
1029
901
779
704
686
706
754
801
840
864
875
875
868
863
858
854
851
850
853
856
857
862
861
860
859
858
856
858
856
857
861
859
864
864
863
862
861
861
859
858
860
860
861
862
861
864
864
864
863
863
860
859
857
861
860
863
863
866
864
860
860
859
859
859
862
861
860
861
862
864
865
863
864
863
861
863
862
863
864
866
869
870
869
868
867
867
866
868
867
869
868
869
872
872
873
874
873
872
871
871
873
873
871
875
875
876
878
876
879
878
874
873
874
873
877
876
877
881
879
880
880
879
878
876
874
876
877
877
879
880
879
880
880
876
873
869
867
865
865
863
859
859
857
856
852
846
843
837
837
837
835
835
835
837
834
834
830
829
829
828
825
827
827
831
831
832
833
834
828
828
828
826
831
830
832
833
832
835
835
835
832
832
833
834
836
835
837
837
839
841
841
840
839
838
836
834
835
834
836
838
838
837
837
835
836
833
833
828
830
830
831
832
835
833
832
830
829
826
828
825
825
825
826
825
828
826
828
829
828
826
825
825
822
825
825
826
827
828
827
828
827
824
821
820
822
821
825
823
825
826
824
824
824
822
824
828
831
833
836
839
844
849
851
852
853
857
854
853
847
848
848
850
853
856
853
853
851
848
845
839
835
831
827
826
824
825
824
824
822
822
822
820
818
820
820
821
821
822
822
822
818
817
817
816
815
816
817
821
822
823
824
823
822
819
821
818
818
821
823
827
831
833
834
835
835
838
847
861
888
929
987
1060
1144
1220
1273
1289
1255
1167
1049
921
793
700
669
683
730
779
820
850
862
861
853
845
838
835
830
835
838
840
840
841
841
841
840
836
838
838
839
840
842
845
844
844
843
844
844
842
841
841
842
845
843
848
847
846
846
843
842
844
842
839
841
844
845
847
847
847
847
847
847
845
844
846
846
847
850
850
850
851
851
851
850
849
850
850
852
851
855
856
859
857
856
855
854
854
853
855
857
858
861
863
861
861
862
861
858
860
859
862
866
868
867
872
874
873
873
872
872
870
871
870
873
873
871
873
875
875
875
873
870
871
869
870
872
873
870
873
872
872
871
865
860
860
854
854
850
849
846
844
842
839
834
831
827
824
821
820
821
819
821
822
821
818
815
814
814
814
812
812
812
812
815
817
818
818
815
814
816
816
817
815
817
820
821
823
823
825
823
825
825
825
822
823
826
828
828
829
826
830
828
826
822
823
821
821
823
827
827
828
828
828
826
825
824
821
819
817
817
820
822
823
822
821
821
819
818
816
815
816
815
816
816
819
817
816
815
815
816
812
810
811
813
815
813
815
815
814
814
815
813
812
811
808
810
810
813
816
814
811
811
810
810
809
806
808
809
809
811
813
815
813
814
814
812
811
809
809
811
814
813
814
814
814
812
812
813
811
810
808
811
812
814
814
815
815
815
812
812
811
809
809
812
813
813
815
814
815
817
816
820
821
824
826
827
832
834
836
838
836
837
839
837
835
835
833
833
831
836
834
839
836
836
833
829
824
822
822
822
818
818
819
818
816
813
812
812
810
810
809
809
811
811
809
812
812
810
808
805
806
806
806
807
808
809
810
808
809
812
813
813
813
814
816
818
821
820
825
828
831
843
862
894
940
1001
1072
1150
1219
1262
1263
1214
1114
988
860
740
671
650
669
716
766
806
833
843
846
841
836
830
825
822
822
825
828
829
829
830
830
830
830
829
826
827
827
827
829
830
832
831
831
829
828
827
828
827
824
827
830
831
833
833
833
832
831
831
828
827
829
827
830
831
833
837
833
831
832
830
828
831
830
832
833
832
834
833
836
836
835
834
834
835
835
835
837
835
838
840
841
840
839
839
838
839
840
842
842
840
844
848
846
846
845
843
843
842
845
846
845
850
848
851
852
852
850
849
849
847
847
850
850
850
852
851
852
852
851
851
851
849
850
851
849
853
853
853
851
850
847
845
842
838
838
834
833
831
831
825
824
822
819
817
813
815
811
813
812
812
811
812
811
808
807
804
806
803
803
804
807
806
808
809
809
810
807
804
805
803
805
804
808
806
810
813
811
813
812
811
811
810
810
811
809
811
813
817
813
815
814
814
811
810
812
811
812
813
813
814
813
810
812
810
808
805
808
810
809
811
811
812
812
810
805
804
806
804
806
805
805
804
806
805
809
809
805
805
801
799
800
800
803
804
808
805
805
802
803
801
801
801
801
801
802
802
804
803
806
804
803
803
800
799
800
802
802
805
803
805
805
805
804
803
802
798
798
802
802
803
803
803
805
805
803
803
802
803
801
802
803
804
804
806
807
805
804
805
801
802
801
799
803
802
806
804
806
805
804
803
804
801
804
804
804
805
807
808
806
806
805
804
806
804
805
803
805
808
810
811
812
811
812
814
815
817
820
823
825
829
831
835
831
834
833
833
835
836
835
831
832
833
832
835
831
832
831
830
826
822
821
819
816
813
814
814
811
810
809
809
809
806
808
809
810
810
809
809
809
809
807
807
807
806
806
804
808
808
809
812
812
814
813
812
813
812
815
814
818
822
824
825
827
830
841
850
874
904
949
1011
1086
1161
1224
1258
1253
1202
1101
973
845
728
663
651
676
723
771
808
830
843
845
842
837
830
827
826
825
825
831
832
833
833
833
832
831
832
832
832
833
834
836
837
837
835
834
832
831
828
832
833
834
835
837
838
838
837
835
835
832
831
833
834
836
837
838
840
839
837
836
836
835
836
834
837
836
838
839
842
842
841
841
841
840
837
840
840
840
841
843
845
844
845
844
843
845
845
845
844
845
847
847
851
853
852
852
850
850
848
848
849
852
854
856
859
857
856
855
855
853
853
855
854
856
857
856
855
856
856
857
857
856
855
860
857
857
859
859
859
856
853
851
848
846
843
837
838
837
837
838
834
833
831
828
825
821
821
822
820
819
819
821
821
818
821
822
821
819
817
817
818
818
818
823
825
823
823
823
821
822
820
822
819
826
826
828
830
830
830
827
828
827
827
829
829
830
831
833
833
832
832
832
831
830
826
825
828
828
828
831
831
829
830
829
825
826
823
821
821
823
825
830
829
828
828
826
825
823
822
822
821
822
821
824
821
824
821
819
819
818
815
816
817
818
821
820
821
821
822
822
821
820
819
817
818
818
816
821
821
822
821
820
816
816
816
814
815
818
819
823
822
821
821
818
818
819
817
819
818
818
821
825
826
823
825
823
822
821
820
823
826
829
831
833
836
837
838
840
841
841
842
841
843
846
846
850
852
852
852
846
844
846
843
844
845
846
849
848
845
841
836
833
829
826
824
823
822
824
825
824
828
828
829
827
826
824
823
822
822
820
821
820
824
827
828
827
825
825
826
825
827
829
831
835
837
840
842
842
839
841
845
857
871
893
929
978
1038
1107
1177
1239
1275
1269
1217
1122
994
866
752
693
684
713
758
803
838
857
862
861
856
852
849
848
849
851
851
853
853
851
851
850
851
852
852
855
856
854
857
856
854
855
853
854
853
854
856
857
859
859
858
859
856
857
857
856
858
856
857
860
860
861
861
861
860
857
856
858
857
860
862
863
864
863
862
863
863
861
862
863
862
864
865
868
868
870
871
869
868
868
867
866
867
868
870
870
874
876
876
876
875
876
876
877
876
878
878
880
882
881
883
882
881
880
880
879
879
878
882
879
882
881
881
878
879
877
877
877
876
878
878
879
880
878
876
873
873
869
864
862
860
859
860
859
858
856
852
851
848
847
840
837
838
842
841
843
842
840
841
840
838
836
834
836
836
838
838
841
842
841
843
842
842
840
841
841
841
841
846
847
848
850
851
848
847
847
847
845
849
850
851
853
853
852
853
853
852
849
847
848
848
848
847
852
852
852
849
848
843
845
845
843
844
844
845
846
847
847
845
845
845
843
842
842
842
843
845
846
848
844
847
847
846
841
841
840
843
842
843
845
846
846
846
846
844
842
841
840
842
841
841
841
845
846
845
844
843
843
841
840
839
843
844
843
846
846
848
847
845
844
842
842
843
844
846
845
846
846
848
847
847
847
849
851
854
857
860
863
866
869
869
868
869
869
868
870
874
873
872
872
874
871
871
871
870
867
866
865
862
859
856
853
853
856
851
849
850
847
848
846
847
846
850
850
851
851
851
849
847
850
848
849
848
852
852
852
856
855
857
859
858
858
858
862
864
864
869
874
882
898
918
953
997
1057
1127
1200
1264
1307
1316
1286
1211
1102
974
853
763
716
717
747
792
836
869
889
897
895
889
879
875
867
870
870
872
873
879
880
882
879
879
880
878
877
875
876
877
879
880
879
883
884
883
882
882
882
882
879
880
880
883
882
884
886
883
884
881
881
881
882
882
884
883
884
886
888
886
885
886
883
883
885
887
888
889
888
890
890
890
888
888
888
887
889
889
890
893
893
897
898
898
898
894
892
892
894
895
896
901
903
905
906
907
906
905
906
904
906
906
908
910
912
914
917
915
915
914
914
913
909
910
913
915
914
916
916
917
918
917
916
916
915
915
916
917
919
920
918
915
914
911
907
903
902
900
895
895
894
893
891
890
887
882
880
879
875
875
874
875
874
876
873
873
872
869
867
867
866
865
866
867
868
871
871
872
873
869
869
870
869
869
868
874
878
879
880
879
878
880
879
879
878
879
879
881
882
884
887
885
883
883
882
881
882
880
883
883
885
886
889
886
886
883
883
881
880
881
880
881
884
883
886
884
884
883
882
881
879
876
876
881
881
881
883
884
880
880
878
877
876
878
879
880
883
885
883
883
884
879
880
876
879
878
880
882
882
881
884
882
884
880
878
879
879
878
880
884
884
883
885
885
886
885
885
884
882
881
879
881
886
888
885
888
885
885
883
882
882
885
887
887
888
890
893
893
893
893
892
895
892
893
896
900
904
907
909
907
910
914
913
914
915
916
920
920
919
920
922
920
921
921
920
917
916
915
912
911
910
908
904
903
902
899
897
896
896
899
899
899
900
902
900
900
901
900
899
899
898
897
900
902
902
903
905
903
905
905
905
903
900
906
908
910
910
914
918
919
918
921
923
931
946
966
998
1044
1100
1173
1246
1314
1352
1350
1298
1199
1071
943
828
768
753
782
828
875
912
933
942
941
939
934
931
930
927
930
931
930
932
933
933
931
930
932
934
936
938
941
942
942
941
938
939
942
939
940
940
944
944
945
947
948
948
947
947
947
943
942
946
946
946
949
951
950
951
950
948
950
949
952
951
951
952
953
954
957
958
955
955
955
951
953
954
958
960
961
962
962
962
962
964
962
961
963
965
967
969
971
973
975
975
976
974
975
975
975
978
982
982
984
985
985
987
987
986
983
983
984
982
987
989
990
992
991
992
989
987
987
986
988
990
992
990
991
994
994
993
992
988
992
993
993
994
994
997
993
995
993
989
988
985
979
979
975
970
972
970
971
969
967
965
965
961
960
960
959
959
959
960
960
961
959
956
961
959
960
960
959
962
962
962
965
969
968
967
967
968
968
966
968
969
971
974
975
977
977
978
976
976
975
976
975
973
980
978
980
981
979
982
980
981
978
979
978
978
981
981
983
982
982
982
982
981
980
977
978
977
976
979
981
981
977
977
978
978
976
973
973
974
977
979
980
979
979
978
975
974
973
976
975
974
975
976
977
978
979
979
977
977
977
975
974
975
976
980
983
983
981
984
981
978
975
975
976
976
978
979
981
984
981
982
981
979
978
977
979
979
979
983
983
983
984
983
982
982
984
986
987
989
990
994
999
1000
1004
1003
1007
1008
1007
1008
1010
1011
1013
1013
1014
1013
1016
1014
1013
1011
1011
1008
1005
1007
1006
1004
1000
999
996
994
991
990
989
987
984
983
983
987
987
988
987
989
987
985
984
983
983
985
982
984
987
986
987
988
986
986
983
984
985
986
987
992
993
997
998
998
999
1000
995
997
999
1002
1009
1023
1042
1070
1106
1156
1221
1289
1354
1398
1409
1373
1290
1170
1042
921
854
839
863
911
957
992
1013
1023
1024
1021
1016
1012
1008
1009
1008
1008
1009
1008
1009
1010
1013
1014
1013
1015
1016
1017
1016
1014
1012
1011
1011
1011
1015
1019
1018
1018
1018
1018
1018
1016
1011
1010
1014
1011
1015
1017
1018
1021
1020
1018
1017
1017
1013
1014
1013
1014
1016
1018
1018
1019
1019
1017
1018
1018
1016
1013
1014
1015
1017
1017
1020
1020
1020
1020
1019
1019
1020
1019
1018
1019
1019
1019
1019
1021
1023
1022
1022
1025
1024
1023
1023
1021
1026
1024
1026
1029
1030
1031
1029
1029
1028
1026
1027
1023
1027
1028
1028
1028
1030
1030
1029
1027
1026
1022
1022
1024
1024
1027
1028
1028
1029
1028
1026
1023
1024
1023
1023
1023
1024
1027
1025
1027
1022
1021
1018
1016
1011
1007
1006
1004
1003
1000
999
996
997
994
993
988
987
984
983
981
984
985
983
986
984
984
982
977
979
980
980
981
980
982
982
985
985
985
984
981
982
981
983
983
984
986
988
990
991
989
991
988
986
985
985
986
986
986
986
990
990
985
984
983
985
982
982
980
983
982
983
982
982
980
977
978
978
975
975
974
976
978
978
979
977
976
974
973
970
969
970
969
970
970
972
972
972
969
969
969
967
964
964
966
966
969
968
968
971
969
968
968
963
964
964
964
967
965
967
968
967
966
964
963
962
962
962
964
964
963
967
970
972
972
973
973
974
974
977
977
980
983
985
988
989
990
990
989
991
986
988
986
985
988
987
991
989
988
985
983
979
975
976
968
968
963
962
962
962
961
962
959
959
956
954
956
955
957
957
957
957
956
956
950
952
951
951
951
954
953
956
957
957
959
958
959
958
959
958
961
961
963
966
970
971
976
984
999
1020
1053
1097
1153
1216
1281
1339
1378
1395
1377
1325
1234
1119
998
893
827
809
828
872
917
953
977
989
989
985
977
971
965
965
967
970
972
972
973
973
971
971
969
969
970
972
973
973
975
975
973
973
972
971
969
969
971
970
972
972
975
976
975
974
971
971
970
969
971
971
972
975
975
975
976
974
971
968
969
969
969
972
974
972
975
975
974
975
972
973
973
972
973
976
975
976
978
978
979
979
976
976
975
976
976
979
980
982
983
983
984
984
984
985
983
984
982
985
987
989
989
988
990
988
989
987
985
985
986
988
989
991
991
993
990
990
988
990
988
988
988
988
988
989
992
989
988
986
981
980
977
975
972
969
966
964
966
962
959
954
950
947
945
943
940
944
940
940
940
939
938
938
934
932
930
929
929
930
931
935
936
935
934
938
934
936
933
933
931
935
935
940
943
943
944
943
942
942
940
938
939
941
943
943
944
945
943
942
941
938
938
939
939
940
938
940
941
939
938
938
936
934
934
933
933
931
934
933
934
935
933
933
930
929
930
927
929
930
927
929
930
930
929
927
929
929
926
924
925
926
925
926
928
926
925
924
924
921
922
920
920
922
920
922
923
925
923
919
920
918
918
919
919
921
921
922
923
923
923
922
920
921
919
920
919
918
920
920
922
923
921
923
925
926
929
928
932
934
937
938
944
944
945
945
945
945
945
945
943
942
941
942
945
948
945
946
941
938
933
932
928
925
923
919
920
920
918
916
915
915
913
911
910
909
909
911
911
912
911
909
908
908
907
909
907
907
907
910
912
913
911
910
908
911
910
911
911
915
918
920
923
926
924
929
935
946
964
991
1026
1079
1140
1208
1271
1317
1343
1332
1277
1185
1066
943
838
781
770
797
838
883
919
941
949
944
936
928
921
920
919
921
925
927
928
930
928
925
924
924
923
925
927
929
929
931
930
931
928
928
926
926
923
926
925
926
928
928
926
926
925
924
925
923
926
924
924
925
927
925
924
926
926
927
924
924
925
926
927
928
928
930
930
931
928
924
925
927
927
928
927
929
928
929
930
932
929
930
928
928
932
929
929
936
936
937
940
939
936
937
937
935
938
938
939
942
944
944
945
942
943
942
940
941
941
940
938
941
944
946
946
945
943
942
938
939
940
941
943
942
944
946
945
944
942
941
941
936
935
934
933
930
932
931
925
924
919
916
915
914
909
908
908
906
907
907
903
900
896
895
896
892
890
891
896
893
892
897
895
895
891
893
892
890
888
893
894
895
896
896
896
898
896
896
895
895
895
895
898
897
902
903
901
902
899
902
901
900
900
900
901
901
904
904
902
901
899
900
896
897
898
899
899
899
897
898
901
897
896
894
892
891
889
890
891
891
893
893
893
894
888
885
887
887
887
887
887
890
890
891
891
890
887
886
884
884
884
886
886
884
885
889
886
888
885
886
884
882
881
883
885
885
885
887
885
887
885
881
883
883
882
882
882
881
885
886
886
885
886
881
880
879
880
880
883
885
886
890
890
890
890
892
894
894
895
896
901
903
907
911
909
912
912
911
908
906
907
908
907
908
909
911
912
909
907
906
902
898
897
896
894
891
888
886
882
881
879
876
877
875
878
878
878
878
877
879
879
877
874
872
873
872
875
874
875
874
878
878
878
874
876
875
875
874
875
878
879
880
882
885
887
887
885
884
886
891
897
908
929
957
997
1049
1113
1181
1249
1295
1321
1297
1227
1119
991
863
768
725
728
763
805
848
878
894
904
904
901
896
892
891
889
891
890
889
889
890
889
889
890
891
894
895
896
895
893
892
891
891
889
890
892
893
894
899
897
897
894
892
891
889
891
888
891
890
894
897
897
897
896
895
891
891
889
891
893
895
895
897
894
896
894
894
892
891
894
892
896
897
900
900
899
900
899
898
898
896
898
898
899
903
903
905
907
902
904
903
900
899
900
901
905
906
910
912
912
914
912
911
910
909
907
907
907
911
911
911
912
913
911
910
907
906
906
909
910
910
909
911
910
912
910
911
909
906
904
905
902
900
898
899
896
892
890
885
880
878
875
871
871
870
869
869
868
866
862
862
858
857
856
858
859
860
862
863
862
861
859
858
858
856
858
856
859
861
863
864
863
865
864
863
860
862
863
864
865
867
865
867
868
870
866
868
866
866
866
868
867
870
871
869
868
867
864
862
862
860
861
862
860
861
864
863
864
861
862
858
857
857
859
857
858
859
859
862
857
857
857
856
854
852
852
853
853
855
856
857
856
854
851
852
851
849
848
850
849
849
850
853
853
853
852
853
851
847
850
850
852
853
853
852
853
854
853
852
849
849
847
849
851
852
855
858
860
861
863
865
865
864
867
869
870
871
874
881
882
885
885
882
882
879
876
879
879
881
884
884
884
881
879
877
872
870
868
865
862
858
859
858
856
855
854
852
851
850
849
850
849
854
853
856
856
854
852
852
849
849
850
849
851
852
853
855
857
857
858
859
856
855
854
854
859
862
866
868
870
876
882
898
917
951
1000
1064
1140
1217
1273
1305
1291
1229
1126
998
870
768
717
714
749
797
838
876
891
896
894
888
880
876
874
873
876
878
881
884
884
882
881
880
880
879
877
878
880
880
881
884
884
884
883
881
880
882
883
882
883
882
884
886
885
888
888
884
886
885
883
885
886
888
888
890
892
890
892
888
888
889
887
888
890
893
894
896
897
896
895
895
894
894
893
894
895
897
898
901
899
898
897
899
902
899
902
903
902
907
905
908
910
909
906
908
909
908
905
906
909
911
913
914
915
914
914
913
911
909
908
909
909
908
911
913
914
913
914
908
907
909
908
909
908
905
905
904
898
896
892
888
885
880
879
876
874
875
874
873
872
870
870
867
868
866
864
867
867
867
870
871
871
870
868
867
869
868
869
867
871
871
875
875
878
875
876
875
875
876
878
877
878
878
880
885
882
883
882
881
880
880
878
879
880
881
881
880
879
881
881
878
878
875
874
875
875
878
878
880
879
877
876
874
872
870
871
872
874
874
873
875
875
876
876
872
871
868
872
867
869
870
871
872
873
872
869
869
867
867
869
866
869
870
872
874
873
872
874
871
869
868
863
865
868
868
872
874
872
872
873
871
871
872
868
868
869
871
874
875
877
878
879
876
879
880
881
882
885
890
893
896
897
900
902
902
901
901
899
897
895
898
899
902
904
903
901
897
898
894
890
889
888
886
882
884
879
877
877
876
873
872
871
870
870
871
872
875
873
873
873
872
870
869
866
868
872
870
871
875
878
879
878
881
879
879
881
883
885
888
893
899
908
924
948
984
1032
1096
1171
1243
1301
1331
1316
1250
1141
1013
885
771
724
726
764
814
862
894
914
920
916
909
901
893
891
888
890
890
894
896
899
902
901
900
901
900
899
897
897
900
900
902
902
904
904
904
903
902
901
900
898
900
900
898
900
903
903
903
903
904
902
902
901
901
901
902
902
907
907
908
905
904
902
903
902
903
904
906
905
908
907
906
906
907
905
906
906
907
910
912
914
914
916
918
916
915
916
914
912
915
915
916
919
922
923
923
923
922
921
921
919
921
925
925
927
930
933
932
932
931
932
931
927
927
930
932
931
934
934
933
934
933
932
932
931
930
931
932
932
933
930
927
923
921
918
914
912
908
908
908
902
904
900
899
895
893
889
886
883
882
883
882
884
882
886
881
880
879
878
876
873
876
876
878
877
881
882
881
882
879
879
877
877
877
879
882
883
885
886
884
884
884
884
883
884
886
886
889
887
889
891
891
891
891
889
889
886
885
888
888
890
890
890
890
891
885
887
882
883
882
885
882
885
886
888
885
884
883
883
882
880
880
880
881
878
882
883
884
884
882
880
878
878
878
878
879
881
883
882
883
881
880
879
879
879
878
879
881
881
880
879
881
881
879
876
878
877
875
879
878
878
881
881
879
880
878
878
877
877
874
879
881
884
888
889
892
895
898
898
898
898
900
902
904
907
906
906
907
903
905
903
901
899
899
902
900
898
897
895
892
888
885
883
880
875
877
873
875
877
878
878
878
879
876
879
876
876
875
876
876
877
878
880
880
881
879
879
879
879
878
881
884
886
888
893
896
896
897
900
909
927
957
1000
1061
1130
1207
1273
1313
1312
1266
1171
1049
924
818
755
742
762
805
846
882
902
911
911
909
901
896
894
894
894
897
900
902
903
901
901
901
901
900
901
901
902
902
904
903
904
900
902
901
898
900
901
902
903
903
907
905
906
905
901
902
900
900
899
902
901
903
907
906
903
904
902
899
900
897
902
904
903
906
905
906
906
907
905
906
904
904
905
907
908
910
912
913
910
911
910
910
906
907
908
910
912
912
913
916
917
911
915
914
913
913
913
916
916
918
919
919
921
918
917
915
918
920
920
921
921
923
925
926
923
924
921
918
918
918
919
919
921
925
927
926
927
924
923
920
919
916
915
912
912
915
911
910
907
903
900
895
890
888
886
887
885
886
886
884
881
879
879
875
871
872
877
876
876
877
877
876
873
873
871
872
872
873
875
875
876
876
877
878
877
878
878
876
875
876
875
875
877
879
882
882
884
882
880
878
879
878
880
882
883
884
885
886
883
881
880
880
877
878
877
877
879
881
880
882
879
879
875
874
875
872
875
876
875
876
875
876
874
875
874
874
871
871
869
871
873
872
873
874
874
872
871
869
869
868
869
869
869
871
873
871
871
871
872
871
867
870
869
870
870
872
873
873
874
873
872
871
869
872
874
876
880
882
886
887
888
888
891
892
892
896
897
898
897
898
897
896
896
895
894
891
892
889
889
887
884
882
880
876
873
869
869
868
867
866
868
869
869
868
870
867
869
868
865
863
862
862
863
865
866
868
869
869
869
870
868
865
863
864
866
868
871
872
873
876
878
878
879
878
879
883
894
911
939
978
1029
1094
1162
1226
1267
1280
1251
1174
1069
949
842
769
744
755
788
826
859
882
891
893
892
887
882
881
881
881
880
880
881
881
880
880
882
883
884
884
884
884
886
884
884
884
881
882
883
885
883
889
888
888
888
886
883
884
884
884
884
885
887
888
890
888
890
890
889
886
881
883
882
883
886
887
888
891
890
890
889
888
888
886
886
889
888
888
892
893
895
893
893
892
891
888
890
892
893
894
895
897
897
898
896
896
895
895
897
899
899
900
903
905
904
904
903
901
902
902
902
903
903
906
906
906
905
904
905
905
903
903
901
898
902
902
905
906
906
908
906
905
904
901
901
901
901
899
901
898
894
890
888
883
878
876
872
870
869
869
870
868
864
864
862
860
858
857
857
857
859
860
859
860
860
859
858
855
854
853
854
856
855
859
859
861
862
861
859
857
858
858
856
860
863
861
866
865
867
865
866
863
863
862
866
864
865
866
868
868
867
866
862
860
859
858
858
860
863
863
865
861
863
863
860
860
856
860
858
858
856
859
859
859
859
857
855
855
855
853
852
854
854
858
861
864
865
866
866
865
866
867
868
871
875
878
883
886
883
881
881
879
876
875
876
879
879
880
879
878
878
874
869
863
859
856
852
851
848
851
853
856
854
852
851
850
849
849
846
847
846
847
848
852
849
851
848
847
847
845
846
848
850
851
853
858
857
858
858
860
858
860
864
869
879
891
913
944
985
1037
1100
1161
1210
1236
1226
1175
1087
981
879
802
764
760
781
815
844
865
876
880
878
875
871
867
866
867
869
866
863
866
866
864
866
868
868
871
871
873
869
870
864
868
867
869
871
872
871
872
873
872
871
871
869
869
868
871
873
873
876
874
876
877
874
872
871
872
872
873
873
875
878
877
876
878
876
874
874
874
875
876
877
878
879
881
880
879
877
876
878
878
878
880
881
883
884
883
886
885
885
885
885
886
884
886
888
889
891
894
894
894
894
892
892
892
894
893
899
900
900
901
899
900
898
899
898
894
895
896
898
901
899
900
898
901
897
897
894
892
891
892
890
886
886
885
882
879
876
873
869
869
867
865
864
863
863
859
860
857
855
854
852
851
850
852
850
853
854
854
853
855
850
850
850
847
848
848
849
851
854
856
855
855
854
853
851
852
853
854
855
856
856
860
860
857
857
857
857
857
857
858
860
861
859
859
857
857
860
856
855
854
856
853
857
858
858
858
857
856
854
852
853
851
848
850
850
850
854
853
854
854
852
849
849
850
849
851
850
851
853
854
852
851
852
853
852
851
853
856
858
860
861
863
864
866
866
868
869
870
873
873
875
879
881
878
878
878
875
876
874
873
872
872
873
872
867
866
864
859
856
851
849
847
845
849
850
849
850
853
851
849
847
844
846
844
846
845
847
850
851
851
853
853
851
851
853
852
852
855
858
860
863
865
869
870
871
875
880
892
908
932
966
1007
1058
1112
1161
1201
1215
1198
1148
1066
965
873
805
772
770
795
824
850
870
881
882
878
871
869
867
866
868
872
871
874
872
871
871
868
870
871
874
872
873
875
873
873
873
872
870
868
871
873
874
875
875
875
875
875
876
876
874
873
875
874
876
878
880
878
877
877
876
874
875
875
876
874
876
877
879
880
882
882
882
880
877
876
880
879
883
885
885
886
886
888
885
884
886
885
887
884
890
890
893
896
895
895
893
895
890
891
893
895
895
896
900
905
905
902
903
903
904
904
905
905
906
908
907
911
909
910
907
907
906
906
904
906
908
909
909
910
907
905
902
899
896
892
892
888
887
886
885
883
880
879
873
873
868
866
867
864
865
866
864
864
864
863
861
860
860
855
856
858
859
860
860
862
862
862
859
857
858
857
857
860
863
859
862
862
865
863
862
863
863
862
864
864
865
865
868
869
870
867
867
866
863
865
865
866
866
867
869
870
868
870
869
866
866
863
864
866
867
869
870
871
869
869
870
869
866
864
865
866
865
867
867
870
867
867
864
865
866
865
867
867
867
868
868
871
872
868
869
868
866
866
866
868
869
867
872
875
873
876
876
877
877
878
878
882
884
888
889
893
895
897
896
894
896
893
896
892
898
896
898
899
900
899
898
895
892
891
887
887
884
882
880
880
876
877
876
876
873
873
872
874
871
873
873
875
876
875
873
870
870
869
867
873
872
872
875
876
878
877
875
876
875
876
878
880
881
887
887
891
891
891
893
898
905
915
931
958
991
1039
1094
1153
1205
1241
1252
1229
1172
1087
991
899
830
794
789
806
834
862
882
895
905
902
903
903
899
897
898
899
899
897
900
899
900
899
901
902
902
904
903
904
905
905
906
904
901
901
904
904
904
904
907
908
909
910
907
908
907
905
904
903
906
910
910
912
911
912
910
909
908
907
907
908
911
910
914
914
914
916
916
914
913
912
913
914
916
916
917
920
922
920
921
918
918
918
918
921
922
924
928
930
930
930
931
926
930
929
926
930
928
930
933
934
935
935
936
932
934
935
935
935
939
938
939
942
940
940
943
941
941
940
939
937
941
943
946
946
946
946
946
944
943
942
941
940
941
937
936
936
934
932
929
924
923
921
917
917
916
914
914
912
912
908
909
906
903
902
898
897
898
901
900
902
900
899
899
897
898
898
896
898
899
899
902
904
903
905
905
902
902
900
902
903
904
905
906
909
909
911
910
906
906
906
905
906
906
908
908
908
911
911
911
908
909
908
906
906
909
909
907
908
908
910
907
907
906
905
905
903
904
903
906
907
905
907
906
908
904
901
901
900
903
902
905
905
903
905
905
903
901
901
897
900
900
903
902
904
907
905
906
905
907
907
908
909
911
916
919
920
922
923
924
927
929
931
932
931
932
931
932
935
933
933
931
929
927
928
925
924
922
921
918
916
911
910
906
904
903
903
903
904
902
904
903
904
905
905
904
902
902
900
900
902
902
903
905
908
907
905
906
906
905
903
905
907
911
915
918
920
924
925
923
929
932
942
954
980
1015
1058
1108
1167
1222
1265
1289
1278
1233
1147
1037
927
842
800
798
825
864
899
924
938
944
937
931
925
920
919
920
922
924
924
926
923
924
923
921
924
924
927
927
928
929
929
930
926
926
927
927
928
927
929
928
930
930
929
929
929
926
927
925
929
930
931
930
931
931
930
929
927
925
925
924
927
929
930
931
933
933
935
933
934
931
933
931
931
929
934
934
935
937
938
939
937
936
935
935
935
938
938
940
945
947
943
944
942
939
941
943
944
945
948
949
951
952
953
950
947
947
948
948
947
951
952
952
955
954
955
953
953
950
951
949
950
951
953
954
954
955
952
950
947
947
941
941
937
935
933
931
929
927
927
922
921
915
911
908
909
906
907
907
908
904
902
902
902
900
897
899
898
901
902
900
903
905
903
903
903
905
900
901
901
900
904
905
906
907
906
907
906
908
905
906
907
907
909
911
912
913
912
910
907
907
905
907
907
906
909
911
911
913
910
907
905
904
905
902
900
903
904
906
906
906
906
907
903
901
901
902
903
908
908
913
917
916
919
917
918
920
920
925
926
928
929
927
927
926
927
924
924
923
922
919
916
918
914
911
909
906
902
898
896
894
893
894
894
895
894
892
891
892
891
889
889
890
890
889
889
890
888
887
890
893
893
893
892
893
892
893
894
896
900
902
904
907
909
912
911
916
919
930
948
977
1020
1079
1149
1216
1268
1290
1263
1184
1064
936
836
781
775
804
848
891
919
932
936
927
916
908
904
902
904
907
910
912
914
913
912
909
907
908
909
911
911
911
912
911
913
914
913
914
908
910
909
910
916
915
918
916
917
917
916
916
914
913
917
913
916
916
916
916
917
916
917
912
913
913
915
916
917
919
920
922
921
921
921
919
918
916
918
918
918
919
922
925
925
925
924
923
921
922
923
925
928
931
931
933
932
932
935
935
934
932
930
932
934
937
939
942
942
943
942
941
938
940
940
938
941
943
944
946
945
943
940
941
941
939
938
938
939
939
938
936
936
934
930
925
919
917
913
908
907
906
904
902
898
896
892
890
887
884
886
884
883
883
882
883
884
882
882
881
878
879
877
880
880
881
883
882
882
886
886
885
885
884
883
885
886
888
889
892
892
891
892
891
891
891
890
890
890
893
895
896
894
895
894
892
892
893
891
893
891
891
894
892
892
892
888
889
889
887
887
887
887
889
888
888
888
889
887
886
887
885
884
886
884
886
888
890
887
887
887
884
882
882
885
887
890
893
897
896
899
899
900
903
902
904
906
905
911
909
910
910
907
908
905
906
905
903
906
904
901
901
896
895
893
889
887
885
882
879
880
879
880
883
885
884
881
881
881
880
878
874
874
877
878
880
884
885
882
883
882
878
880
881
882
883
886
890
891
894
896
894
895
897
902
912
930
956
992
1047
1110
1181
1245
1292
1311
1292
1232
1133
1017
902
812
761
753
778
818
855
885
904
913
910
909
901
897
894
895
895
897
898
898
899
899
900
897
898
899
901
900
903
901
903
900
902
900
900
900
898
901
903
903
904
905
905
904
904
902
900
901
900
903
904
906
908
908
906
906
904
900
903
902
905
906
907
908
911
911
910
908
905
905
906
906
909
910
910
912
913
914
915
913
912
911
910
910
911
913
914
914
917
917
919
918
918
918
918
919
917
920
922
923
925
928
927
928
929
926
927
927
925
930
932
932
936
936
936
937
935
935
932
932
933
937
938
938
940
940
941
938
936
932
930
931
928
926
924
922
918
914
912
909
902
898
896
894
891
890
890
889
887
885
887
883
883
881
879
879
878
880
880
880
879
880
882
878
876
875
875
874
874
875
876
879
880
881
879
878
878
877
875
875
876
875
876
878
880
881
883
883
883
884
881
883
881
882
883
884
885
886
888
884
886
881
881
878
880
882
880
879
880
881
882
881
878
878
876
877
875
875
878
877
880
879
877
877
877
875
874
875
875
877
877
878
879
877
876
877
877
876
876
875
873
875
873
875
878
877
876
875
873
873
871
873
872
875
876
879
881
881
882
885
885
884
888
889
893
892
894
900
906
906
905
904
905
902
900
898
899
900
900
902
904
902
900
895
892
886
882
880
878
875
872
875
877
877
876
876
877
874
873
873
873
872
874
874
875
874
873
873
873
871
871
872
871
870
870
872
877
880
878
878
878
881
878
881
883
885
890
890
893
895
902
907
924
954
995
1051
1123
1195
1257
1295
1296
1254
1168
1051
928
823
756
736
755
798
839
873
898
908
910
905
898
890
889
889
886
889
891
896
894
895
894
893
893
893
890
891
892
891
895
895
895
897
895
896
894
892
894
895
894
894
896
898
896
897
898
896
896
895
893
893
892
894
895
896
897
897
899
897
895
896
894
896
896
898
897
899
902
901
899
897
895
895
896
894
899
899
902
903
906
906
906
905
902
902
903
902
905
907
907
910
912
912
910
911
910
911
912
908
907
909
913
916
919
919
920
919
917
917
918
920
919
919
921
920
924
923
925
922
920
922
920
921
920
923
922
923
925
928
924
923
924
920
917
915
910
911
909
907
906
902
899
895
890
889
886
884
883
881
881
880
881
880
879
877
874
871
871
870
871
870
872
875
875
874
873
872
873
873
871
872
873
874
876
876
878
876
879
876
877
876
876
874
876
877
877
881
881
879
880
880
881
881
880
878
876
879
878
880
881
882
880
880
879
878
878
877
875
875
877
881
880
880
879
878
875
875
874
872
870
872
873
872
871
877
877
874
874
873
870
873
874
872
873
873
875
874
875
875
874
872
874
874
875
876
877
880
885
885
885
887
889
886
888
888
892
895
897
902
903
904
902
901
900
900
894
896
896
896
895
894
894
894
892
890
883
882
877
874
870
867
869
871
873
874
872
872
868
867
868
864
864
864
866
865
870
868
867
867
867
866
866
868
866
869
871
872
874
877
877
876
875
876
879
879
878
882
886
888
893
899
906
917
935
961
1000
1055
1118
1189
1250
1291
1304
1280
1217
1125
1011
898
806
759
751
774
812
849
876
893
896
894
890
888
884
884
883
884
889
888
889
889
887
887
886
886
886
886
884
882
886
888
887
892
891
891
891
891
890
887
888
890
890
890
891
891
889
889
892
890
889
889
888
890
892
890
894
893
894
895
894
893
891
892
892
892
894
896
895
897
896
896
895
895
893
893
892
892
896
898
898
901
900
897
897
896
897
898
896
898
899
901
903
904
904
904
902
903
904
901
902
904
906
907
910
912
912
910
913
912
908
907
910
910
911
915
915
915
914
914
913
910
908
907
909
909
909
913
914
913
913
913
910
905
905
901
899
897
896
895
894
891
890
885
882
882
877
874
872
872
872
871
875
873
872
870
867
865
859
863
859
860
861
864
865
865
865
865
864
862
863
859
861
863
860
866
869
869
872
868
869
866
868
868
869
870
871
870
873
875
875
876
874
875
872
870
871
868
871
874
877
877
876
877
874
873
870
869
869
869
872
871
871
871
869
868
867
865
865
863
862
865
865
865
866
869
868
866
864
865
866
863
860
863
864
863
864
865
866
866
864
863
860
862
861
863
863
863
865
866
868
867
865
863
860
862
861
861
864
864
864
866
866
870
871
870
872
873
875
876
878
882
883
885
885
886
889
889
888
889
890
888
891
890
891
891
891
891
889
890
885
884
882
878
876
874
874
873
870
868
867
866
862
865
867
864
865
865
869
869
867
866
866
864
859
861
861
862
865
864
865
866
863
866
863
865
864
865
868
870
873
876
880
882
883
888
892
902
921
949
989
1044
1113
1184
1246
1288
1300
1273
1209
1111
999
886
798
753
748
772
812
850
875
891
898
894
891
884
878
877
878
877
881
882
882
882
883
881
880
880
880
879
880
882
884
886
885
886
883
883
881
878
879
879
883
883
886
884
885
884
882
881
880
878
881
882
883
882
885
887
886
885
884
883
883
880
881
881
884
883
887
888
887
887
887
885
883
885
883
882
885
886
887
888
889
891
892
891
888
888
888
890
891
893
896
897
896
898
896
897
895
894
898
899
902
902
902
905
902
905
904
903
903
905
905
907
909
911
910
914
912
913
910
910
909
910
911
911
913
912
915
917
914
911
910
907
902
900
898
897
893
891
889
888
885
885
881
876
874
870
869
869
868
865
866
867
865
865
862
862
858
857
858
858
860
860
858
861
862
860
858
859
856
856
856
858
859
860
861
861
862
860
860
858
859
856
857
860
863
866
866
866
868
867
868
867
866
864
865
863
867
865
867
868
869
866
867
865
863
861
860
861
860
862
861
861
859
861
862
856
857
858
854
856
858
858
858
861
860
861
862
857
857
855
855
855
856
857
860
860
860
858
858
856
857
854
856
856
856
856
858
858
859
857
857
855
852
852
851
848
851
854
854
856
856
857
857
855
851
852
855
852
856
855
859
859
861
861
861
861
860
860
865
864
869
872
874
876
877
879
878
878
878
882
880
880
878
880
880
882
881
882
881
879
876
874
870
868
865
865
865
862
861
862
859
859
855
856
857
855
853
857
858
858
859
858
856
855
851
851
853
852
854
856
859
859
859
862
861
862
862
862
862
862
869
869
873
877
879
882
887
894
913
942
981
1034
1099
1172
1234
1274
1274
1234
1147
1038
921
819
754
733
749
783
824
859
879
887
889
884
878
873
870
871
872
875
876
880
880
880
881
877
875
875
877
877
878
878
880
882
883
880
879
879
878
875
875
876
877
877
880
878
879
882
882
881
880
879
878
879
876
877
879
881
884
881
881
880
879
878
879
880
879
878
880
884
885
884
885
883
882
883
882
884
885
886
887
887
889
889
888
885
886
885
886
888
889
890
891
893
895
896
894
894
893
897
896
897
897
901
901
903
903
904
905
904
900
901
901
899
902
904
907
907
909
906
904
904
903
904
904
906
909
907
909
912
909
908
906
901
899
895
893
891
887
887
884
883
882
878
878
874
868
868
870
868
867
866
866
867
866
863
862
861
857
858
857
855
854
858
861
861
863
858
861
861
859
860
857
859
860
861
865
863
867
866
866
865
864
863
861
862
864
867
867
870
868
868
868
866
865
864
866
866
866
868
868
871
871
868
867
865
865
861
862
861
862
861
864
865
864
863
863
861
860
858
857
856
858
859
859
859
860
862
861
859
856
856
858
858
859
861
861
862
861
861
858
856
858
857
857
857
858
861
864
863
862
861
861
864
864
864
865
869
873
872
875
875
880
881
883
884
882
883
883
883
884
884
886
889
890
891
887
882
882
875
874
871
869
866
867
865
861
863
862
865
861
860
860
858
857
856
859
861
862
862
861
860
859
857
855
858
858
860
859
862
863
864
864
862
862
861
863
865
865
870
871
873
876
877
877
876
878
880
887
898
911
933
965
1008
1064
1126
1191
1240
1267
1253
1195
1096
974
857
776
739
750
783
826
860
882
892
889
888
882
881
879
876
879
879
882
879
879
877
878
879
879
879
881
881
883
882
885
883
880
881
881
882
883
882
881
883
886
888
886
886
886
884
884
885
885
888
886
890
889
888
888
889
887
885
885
887
884
886
889
889
890
890
889
887
886
886
884
886
887
884
889
889
889
887
889
888
888
890
886
891
894
892
894
897
899
898
898
898
898
897
895
894
897
898
902
904
904
906
907
906
906
903
904
905
906
905
910
914
913
912
912
908
908
909
909
907
908
909
908
911
912
912
912
910
909
909
907
906
905
903
904
903
902
897
897
894
889
884
881
882
878
877
877
879
876
875
873
871
868
866
863
864
862
866
864
866
865
867
867
866
864
863
860
862
866
867
869
871
873
873
873
871
874
870
870
871
872
872
873
876
877
873
875
875
875
874
873
873
875
875
876
876
877
879
875
873
874
872
872
871
871
872
872
874
875
874
874
873
871
871
870
869
870
871
872
874
874
873
871
871
871
868
867
868
869
870
870
873
873
873
870
873
872
872
873
875
879
880
884
886
888
890
892
890
893
894
893
893
896
894
894
896
896
896
895
896
895
891
889
886
887
883
882
880
880
877
874
872
871
870
867
869
868
867
867
871
868
869
870
869
868
865
865
867
866
869
869
872
873
873
871
871
874
870
873
873
874
876
880
884
887
887
888
889
894
899
912
933
968
1013
1073
1144
1213
1266
1296
1292
1248
1165
1060
947
850
783
758
770
797
834
867
888
900
902
901
897
892
892
891
889
890
890
890
890
891
890
890
889
889
890
893
893
893
895
894
892
893
893
892
892
894
894
897
897
899
897
896
896
893
892
893
894
894
891
893
894
897
896
898
900
895
895
896
896
897
899
900
901
902
901
902
901
901
899
897
899
901
901
903
904
908
907
909
906
906
905
902
906
907
910
910
914
913
914
913
912
914
914
913
915
915
916
918
918
921
925
922
921
926
921
924
925
927
927
930
931
932
933
934
931
929
928
928
928
929
931
932
931
935
934
933
932
930
931
927
925
920
919
920
916
915
912
907
902
900
896
894
892
891
891
889
890
890
888
888
884
883
880
881
880
879
877
880
881
884
883
881
882
878
880
881
879
882
884
884
886
890
889
888
888
888
887
886
889
891
889
893
896
896
897
895
895
893
894
890
891
893
892
893
893
897
897
897
894
892
889
888
890
888
892
892
894
894
896
894
891
888
889
887
887
884
886
888
889
889
891
891
889
889
888
888
886
885
889
889
888
892
890
892
889
888
888
888
887
888
890
893
894
897
899
900
901
901
898
899
903
904
907
912
914
916
917
918
918
917
913
913
912
912
914
915
917
914
914
911
907
905
899
895
893
890
889
891
893
892
893
893
891
889
888
884
884
885
887
887
888
892
891
887
890
888
887
887
885
884
888
893
892
897
896
896
896
895
898
898
902
905
907
909
918
929
946
969
1000
1045
1100
1162
1226
1279
1310
1313
1269
1185
1073
948
842
775
757
779
818
863
899
921
930
930
924
917
911
906
900
901
903
902
905
909
906
910
911
910
908
908
907
906
908
908
909
910
910
913
912
913
911
909
910
908
908
908
909
911
912
913
913
914
912
911
907
909
910
910
911
912
913
915
914
914
911
913
913
912
913
914
916
917
917
919
919
920
919
918
915
914
916
917
917
921
923
925
924
927
922
922
922
921
920
922
926
929
930
933
935
934
934
931
933
932
931
933
932
933
936
936
937
935
935
934
934
935
936
936
936
939
939
939
937
940
939
938
939
936
935
933
932
928
927
927
923
921
917
914
910
907
904
904
904
900
902
902
900
898
898
896
892
890
890
890
890
891
892
894
896
895
895
892
889
890
891
891
892
895
894
897
897
896
897
898
896
896
896
895
895
898
899
902
902
902
901
901
898
897
895
896
897
899
897
900
900
901
901
898
897
894
894
894
895
896
896
899
897
895
896
896
892
892
890
894
896
893
895
896
896
896
896
893
891
889
890
889
888
893
893
894
895
894
892
891
892
890
888
890
891
893
892
893
893
893
890
891
889
888
887
886
889
891
891
894
894
894
894
892
893
890
888
891
890
890
894
894
894
889
894
891
891
887
889
890
891
891
893
895
900
899
901
901
903
900
901
905
907
911
912
915
917
918
920
918
918
917
915
911
914
915
915
917
916
916
916
914
911
907
902
899
897
894
895
894
893
891
893
891
889
889
886
886
887
889
889
890
891
888
887
888
885
885
884
884
885
886
888
892
890
891
893
894
892
892
894
897
896
900
904
907
910
912
916
925
939
963
997
1044
1101
1164
1223
1277
1305
1303
1262
1178
1069
950
847
778
754
769
808
854
888
915
924
925
917
910
902
898
898
899
899
904
905
905
907
904
906
905
902
902
901
904
905
907
906
904
908
906
908
905
904
903
906
905
910
908
909
906
907
905
906
904
904
904
905
906
907
910
910
910
911
911
910
909
907
907
907
909
912
912
914
911
909
910
912
910
909
908
909
908
911
914
916
914
915
913
909
911
916
916
917
920
920
922
925
925
923
922
921
919
919
919
920
920
922
926
926
926
925
923
923
918
916
920
919
923
922
926
926
927
927
927
927
925
920
919
920
920
920
918
917
915
911
909
904
902
898
897
894
896
894
894
893
889
888
887
885
886
885
885
885
886
885
886
887
886
887
885
885
885
881
882
883
885
886
886
886
887
885
888
886
886
883
887
885
889
889
891
893
893
894
893
891
891
891
889
889
891
890
895
894
894
893
889
890
888
886
886
885
886
887
888
889
889
888
886
886
883
884
883
883
882
882
885
885
885
885
882
882
877
879
879
879
882
882
883
882
880
879
878
877
877
878
878
878
878
881
881
882
882
883
883
882
883
884
886
888
890
893
897
898
899
900
901
901
902
903
903
904
906
906
909
907
907
907
905
904
903
902
899
898
897
897
893
891
888
886
880
881
879
879
879
880
880
881
883
881
881
879
877
874
874
875
871
873
874
873
877
878
876
876
876
875
875
874
875
877
879
883
885
888
886
888
888
888
886
890
893
901
915
937
973
1021
1082
1153
1222
1280
1309
1301
1250
1158
1042
919
821
761
749
771
809
850
880
899
907
907
903
897
897
896
894
892
895
896
895
894
895
893
893
895
897
900
899
902
899
898
897
896
896
896
898
901
901
903
903
903
899
901
897
895
896
898
900
901
902
901
902
901
900
899
897
896
896
899
896
902
903
906
906
905
903
903
902
899
903
900
902
906
905
908
908
907
905
907
906
902
906
907
911
911
912
915
916
916
915
914
915
913
913
911
916
918
919
921
923
921
922
921
920
920
919
922
920
920
922
923
925
922
921
920
917
918
918
919
920
921
922
925
924
925
922
921
916
917
913
915
913
911
912
908
908
905
898
896
893
890
889
884
885
886
886
889
885
885
885
881
879
878
878
879
877
878
878
880
881
881
881
881
879
881
880
880
882
883
885
886
884
885
885
882
883
883
883
885
886
886
888
891
890
891
890
891
890
889
889
890
891
892
891
891
892
893
890
889
888
888
885
889
888
889
891
890
890
891
888
886
884
883
884
884
883
886
888
886
887
888
886
886
884
882
881
882
881
883
883
886
886
886
885
884
882
881
882
880
881
884
885
888
887
885
885
886
883
880
882
884
884
886
886
888
888
888
888
883
881
882
880
881
887
888
892
894
896
899
899
898
900
900
902
903
907
910
912
917
916
914
913
909
907
908
908
909
911
910
913
913
910
908
903
898
893
892
888
888
888
888
889
893
890
891
888
889
886
885
885
886
885
884
886
889
890
888
887
887
886
885
884
887
888
890
891
892
894
893
896
894
894
894
899
901
902
909
918
930
944
973
1010
1062
1124
1194
1260
1308
1322
1292
1208
1088
960
836
769
754
778
821
870
906
928
933
930
924
913
904
903
901
903
901
907
910
910
912
912
913
914
912
912
910
909
906
909
908
909
910
912
910
913
914
911
912
912
910
907
909
913
913
914
917
917
916
913
913
910
909
912
912
914
912
915
919
917
916
915
913
915
916
916
915
917
916
917
921
922
921
923
922
920
922
920
919
925
929
929
930
931
933
931
928
930
928
929
933
933
935
934
935
935
939
936
936
936
935
938
939
942
940
944
945
947
944
943
944
941
939
941
942
943
943
946
948
947
949
947
945
944
939
938
936
934
933
931
930
927
923
919
916
912
909
906
903
904
904
902
905
903
901
897
898
897
894
894
894
896
896
896
896
896
896
895
894
895
893
896
896
897
898
901
901
903
903
902
903
903
902
901
902
904
906
906
909
908
910
908
905
905
905
905
904
907
906
909
910
911
910
906
906
902
904
904
904
907
905
908
907
910
906
907
905
903
902
901
902
901
903
902
904
905
905
903
900
900
898
900
899
897
900
902
901
901
901
901
900
898
895
896
896
901
902
901
904
903
904
904
902
899
896
896
900
899
901
900
904
904
903
901
902
898
899
899
901
899
901
903
905
906
902
903
902
903
903
900
902
903
904
904
908
905
907
907
905
906
902
903
906
905
907
909
913
914
918
920
919
922
920
922
925
928
932
935
935
934
932
930
929
925
930
927
928
929
928
930
929
927
924
919
916
912
908
907
906
907
907
908
911
910
909
909
907
904
904
903
903
906
907
909
910
911
913
908
908
906
906
906
908
910
911
913
916
919
921
917
918
920
924
925
929
938
957
982
1020
1074
1141
1216
1282
1330
1335
1286
1184
1056
928
821
775
777
811
859
899
930
945
946
940
931
927
923
925
926
927
928
928
924
925
925
927
926
926
927
931
931
931
931
929
928
926
928
927
928
927
932
933
932
932
931
928
927
928
928
927
927
930
931
933
933
934
933
931
928
930
929
929
930
931
929
933
933
934
932
932
932
933
932
931
931
933
935
938
939
937
936
935
934
932
930
935
935
937
940
943
940
941
944
945
942
942
942
943
944
945
947
949
949
949
947
949
947
946
947
948
948
947
950
951
951
950
949
949
947
946
948
948
947
952
953
952
953
952
950
946
944
942
938
936
936
935
931
930
929
926
922
920
918
914
912
912
912
912
913
913
913
914
913
909
908
907
908
908
909
910
912
914
917
913
914
912
913
911
911
912
913
915
915
918
922
919
919
921
919
919
919
919
918
920
919
920
923
923
920
920
921
921
920
919
921
921
921
921
922
921
918
916
917
915
915
913
917
917
917
921
919
919
920
916
914
912
912
912
913
914
916
917
919
918
917
915
916
912
911
909
913
916
914
916
918
917
919
916
914
913
910
909
912
911
916
915
916
916
917
915
914
910
911
913
912
914
914
915
916
917
918
916
914
914
912
913
911
915
916
917
919
920
919
918
915
914
910
911
913
914
918
919
919
920
919
915
915
914
915
916
919
923
926
929
930
933
934
934
937
937
938
941
943
942
943
944
941
938
939
939
938
936
938
937
936
936
935
933
933
929
925
923
921
919
916
916
915
917
917
922
923
920
917
917
913
912
910
911
910
911
913
914
918
916
916
915
915
914
914
915
916
918
920
921
925
926
927
928
929
928
928
928
934
941
954
972
1001
1040
1096
1162
1233
1294
1329
1327
1276
1185
1068
950
854
798
792
812
850
888
916
933
941
944
941
937
936
935
932
931
933
931
933
933
932
935
935
938
937
937
938
936
936
936
935
934
935
938
938
940
942
940
940
938
937
935
935
936
937
936
939
940
938
939
940
938
941
939
934
937
935
937
938
939
940
938
940
939
936
938
935
935
936
937
938
940
942
942
942
942
942
939
938
942
941
941
945
947
947
944
948
946
946
945
942
945
944
949
950
953
954
954
953
953
951
951
950
950
952
953
954
953
956
953
953
952
953
952
951
952
952
953
954
955
955
953
953
953
951
950
950
951
951
954
956
957
956
955
953
950
946
942
943
942
939
938
938
936
938
934
932
929
927
924
922
921
919
921
919
918
920
918
921
918
914
912
914
911
915
918
918
919
920
921
917
919
918
918
916
916
917
919
919
920
922
924
924
924
923
924
922
924
924
924
927
926
928
929
928
927
925
924
921
923
924
925
926
927
928
928
927
924
922
921
919
919
921
921
925
925
924
925
924
922
920
919
917
915
916
918
920
919
922
920
920
918
915
914
913
913
913
914
911
915
917
919
920
918
917
914
915
912
913
915
917
917
917
917
920
917
915
914
911
913
914
914
917
919
921
923
923
924
923
924
922
927
930
933
936
938
943
942
943
943
943
940
940
938
937
939
942
942
945
944
941
941
938
934
931
927
924
922
921
919
920
922
921
920
917
916
913
912
910
915
915
916
917
915
917
913
913
913
911
913
914
917
918
921
922
921
921
921
921
921
923
926
929
931
934
936
940
947
954
966
989
1023
1071
1131
1205
1280
1340
1373
1367
1314
1209
1081
953
844
792
793
825
874
916
950
966
969
965
957
951
944
943
941
944
944
948
951
953
954
955
950
950
947
946
948
950
953
957
956
957
957
956
959
956
956
956
958
955
957
961
961
961
962
961
963
963
963
962
963
965
967
965
969
970
970
971
969
970
969
964
969
971
971
972
974
976
976
975
977
978
975
976
976
977
981
982
984
987
987
987
988
988
987
986
988
991
994
996
998
1002
998
1000
1002
1002
1001
1001
1001
1002
1005
1008
1010
1013
1013
1013
1012
1014
1015
1012
1013
1015
1014
1014
1018
1019
1020
1017
1017
1016
1013
1017
1017
1017
1018
1022
1024
1025
1021
1020
1019
1018
1015
1011
1009
1008
1004
1004
1004
1003
1004
1003
997
993
990
987
987
988
989
989
989
990
991
989
990
987
987
987
986
986
988
990
992
994
995
994
993
993
992
993
996
995
997
1000
1001
1004
1006
1006
1006
1005
1007
1006
1008
1009
1010
1013
1015
1017
1015
1018
1017
1017
1016
1012
1015
1011
1015
1017
1018
1022
1021
1023
1021
1021
1018
1018
1018
1016
1018
1021
1021
1025
1023
1020
1020
1020
1017
1018
1017
1019
1022
1023
1023
1025
1025
1025
1024
1025
1023
1021
1021
1021
1024
1024
1024
1028
1029
1030
1029
1027
1027
1023
1025
1026
1026
1030
1031
1032
1034
1034
1031
1031
1032
1029
1031
1032
1033
1036
1034
1037
1038
1038
1035
1036
1037
1033
1037
1036
1037
1038
1039
1042
1044
1040
1042
1042
1041
1040
1041
1042
1044
1049
1049
1057
1059
1062
1063
1065
1065
1066
1068
1069
1073
1075
1076
1079
1078
1075
1075
1072
1072
1073
1074
1073
1075
1072
1074
1073
1071
1065
1063
1059
1055
1054
1052
1054
1050
1054
1057
1057
1057
1057
1056
1056
1055
1054
1051
1053
1054
1057
1058
1060
1059
1063
1061
1060
1060
1060
1061
1061
1066
1069
1071
1075
1076
1079
1083
1087
1101
1123
1161
1209
1269
1337
1398
1443
1458
1435
1366
1258
1136
1024
951
923
939
982
1028
1071
1100
1113
1110
1103
1094
1085
1081
1079
1082
1085
1089
1093
1091
1093
1092
1089
1089
1088
1089
1088
1090
1091
1093
1092
1095
1093
1091
1088
1088
1087
1091
1090
1090
1093
1095
1096
1099
1097
1097
1094
1095
1094
1094
1094
1092
1093
1098
1100
1098
1101
1099
1098
1096
1095
1095
1094
1095
1098
1099
1100
1099
1102
1103
1099
1101
1098
1099
1099
1099
1102
1103
1104
1107
1101
1103
1103
1104
1100
1099
1102
1102
1106
1107
1109
1108
1108
1111
1110
1109
1110
1107
1110
1110
1111
1110
1113
1114
1115
1112
1113
1112
1111
1110
1112
1111
1113
1115
1115
1116
1116
1113
1114
1112
1111
1113
1111
1110
1114
1117
1119
1118
1116
1116
1114
1110
1109
1107
1105
1100
1103
1101
1099
1097
1094
1089
1086
1083
1078
1074
1074
1076
1075
1075
1075
1070
1072
1072
1070
1067
1069
1068
1068
1067
1069
1069
1070
1070
1071
1070
1070
1069
1066
1067
1069
1068
1072
1070
1074
1072
1074
1075
1074
1073
1072
1070
1071
1073
1071
1075
1077
1077
1075
1076
1076
1075
1075
1074
1073
1074
1074
1074
1075
1075
1072
1075
1073
1071
1066
1066
1066
1066
1066
1068
1072
1070
1069
1066
1068
1066
1063
1062
1063
1062
1062
1063
1063
1063
1062
1063
1061
1060
1057
1056
1058
1057
1057
1057
1060
1061
1060
1058
1055
1056
1057
1053
1053
1055
1056
1055
1059
1058
1057
1056
1054
1054
1052
1050
1050
1051
1052
1053
1054
1054
1054
1053
1051
1051
1050
1048
1050
1049
1050
1055
1056
1059
1059
1061
1061
1060
1061
1059
1065
1066
1069
1070
1075
1078
1077
1079
1078
1072
1072
1070
1069
1070
1072
1070
1072
1073
1072
1068
1066
1063
1059
1055
1054
1051
1050
1049
1049
1049
1047
1047
1044
1043
1043
1041
1039
1036
1038
1038
1037
1038
1042
1043
1039
1039
1036
1036
1035
1036
1038
1040
1041
1043
1043
1042
1041
1041
1043
1042
1044
1045
1047
1048
1052
1053
1058
1066
1080
1098
1128
1169
1219
1280
1341
1385
1408
1393
1335
1243
1128
1012
929
896
902
936
981
1021
1052
1068
1071
1066
1056
1049
1042
1040
1042
1044
1046
1046
1049
1050
1049
1050
1047
1047
1043
1046
1046
1045
1048
1048
1049
1050
1048
1047
1045
1045
1045
1043
1044
1043
1044
1043
1045
1048
1046
1045
1045
1044
1042
1043
1042
1042
1044
1046
1044
1045
1045
1044
1045
1042
1041
1038
1040
1039
1041
1041
1043
1043
1043
1038
1040
1041
1041
1039
1039
1041
1042
1044
1044
1047
1046
1047
1043
1043
1043
1041
1041
1039
1043
1046
1049
1049
1049
1048
1047
1046
1045
1046
1044
1045
1049
1049
1051
1053
1052
1052
1050
1052
1049
1045
1045
1045
1049
1049
1053
1053
1052
1052
1048
1046
1043
1045
1047
1045
1047
1048
1049
1053
1050
1048
1046
1043
1039
1035
1035
1031
1030
1028
1027
1025
1021
1019
1017
1013
1007
1007
1004
1004
1000
1003
1006
1003
1002
1002
1000
999
994
993
993
995
995
996
998
1001
1001
1001
1000
999
999
994
995
995
995
997
1001
1001
999
1001
999
1000
999
997
998
1001
1001
1001
1001
1000
1003
1001
997
997
998
994
995
994
994
996
997
998
997
997
995
992
993
988
987
988
989
990
988
988
987
987
987
986
984
981
982
982
982
983
983
983
984
982
980
979
978
979
978
979
979
979
981
981
982
983
978
980
977
976
977
979
981
983
985
988
986
990
990
990
992
992
996
998
999
1000
1004
1006
1005
1003
1000
999
998
994
995
995
999
998
996
996
995
992
988
984
979
975
971
970
970
967
971
973
972
972
968
966
965
960
956
958
962
962
963
963
963
962
963
962
960
959
960
958
960
962
964
965
965
966
966
965
966
965
967
969
968
972
975
979
985
996
1010
1031
1060
1102
1155
1215
1275
1321
1341
1328
1275
1183
1068
953
865
817
815
840
884
923
953
972
980
981
977
972
968
965
964
967
969
968
971
974
973
973
969
968
965
965
965
967
967
969
971
971
971
972
970
967
966
966
966
968
970
970
972
973
971
969
969
967
964
965
966
967
966
968
967
969
969
971
969
968
966
964
967
967
966
970
970
970
971
971
967
965
964
966
966
966
966
967
970
972
972
973
971
970
968
970
967
965
968
970
971
972
971
972
971
972
972
972
972
974
972
975
974
980
978
979
977
978
977
974
974
975
978
977
979
979
979
977
977
974
971
970
970
971
971
974
976
975
976
973
968
966
962
961
958
953
954
952
949
947
944
941
938
935
934
930
929
929
927
930
927
928
924
922
925
921
923
922
923
925
924
924
925
926
928
926
925
925
923
924
924
923
926
929
928
931
931
930
931
928
928
928
927
927
928
929
931
931
932
933
931
927
923
924
924
923
924
924
926
927
927
927
926
922
922
921
920
919
919
921
919
923
919
920
919
916
915
916
914
912
912
913
917
919
922
923
923
923
924
924
925
928
930
933
936
939
941
943
943
941
940
938
934
935
936
938
941
941
941
940
938
932
927
922
919
916
913
913
910
912
911
908
909
905
904
902
900
899
900
901
901
905
904
903
901
900
898
897
895
898
897
899
902
905
903
903
903
902
902
903
904
904
907
911
913
917
920
922
928
936
953
977
1011
1061
1118
1185
1243
1289
1312
1301
1250
1165
1054
939
838
780
760
780
818
864
898
919
927
926
923
917
912
911
911
914
915
915
917
916
915
914
913
911
912
912
914
915
916
918
918
918
918
914
917
913
912
915
917
914
918
919
919
917
916
915
915
914
910
913
914
914
918
918
919
918
915
918
917
916
916
915
918
918
917
920
918
917
919
916
916
913
915
914
919
919
920
921
923
922
922
922
921
921
920
921
922
924
926
927
930
930
930
928
928
926
928
928
929
930
933
936
936
937
938
936
936
934
935
936
937
937
939
939
941
940
939
937
937
935
934
935
935
935
936
937
937
934
932
929
924
921
915
911
910
908
906
904
902
898
894
892
889
886
884
882
881
881
881
881
880
881
881
877
877
875
873
873
874
876
878
878
878
877
879
876
876
876
877
877
877
880
880
882
883
883
883
884
882
880
880
880
884
885
886
887
886
885
883
886
885
883
881
881
881
883
885
884
883
884
883
878
878
876
874
876
875
875
878
880
879
878
877
875
873
873
871
869
871
872
874
876
876
875
874
875
872
869
868
871
872
873
873
876
875
873
874
874
875
875
877
879
879
884
887
889
892
892
897
894
897
896
895
894
895
893
894
896
896
896
896
894
892
890
885
885
882
879
877
874
875
871
867
865
865
864
864
862
863
863
866
866
866
865
863
860
862
859
859
859
858
862
863
865
865
867
865
865
866
864
864
866
866
868
871
874
875
876
879
878
880
886
896
917
951
999
1065
1142
1214
1265
1283
1253
1174
1060
932
817
745
719
735
775
823
860
883
893
894
891
883
878
874
874
873
878
879
880
881
878
879
877
876
876
875
877
876
880
883
881
882
880
878
876
877
877
876
878
879
881
881
882
879
879
878
878
876
878
878
880
879
880
881
880
881
878
876
875
875
877
876
878
879
882
876
877
880
881
880
876
876
876
881
883
882
884
886
887
884
886
886
885
884
886
887
889
889
891
891
893
892
891
892
890
891
893
894
894
898
900
902
899
901
901
901
899
898
900
899
899
903
905
904
905
904
903
902
901
901
902
902
903
900
901
901
897
893
889
886
880
876
872
870
868
867
864
864
862
859
855
853
848
847
847
845
844
845
849
847
847
846
846
844
845
841
845
844
846
844
845
847
847
848
846
847
844
844
844
847
848
850
849
852
850
850
849
850
849
848
849
851
852
852
855
855
856
854
853
852
850
849
846
847
848
851
851
852
851
850
850
848
845
844
844
845
845
846
847
847
845
847
846
844
843
841
840
842
844
844
842
846
844
843
842
840
841
838
838
841
840
840
843
845
844
846
843
842
842
845
846
848
852
856
858
862
860
862
861
861
864
864
865
868
869
867
867
869
866
868
865
867
864
864
861
861
859
858
855
851
850
845
842
840
837
837
837
839
837
837
839
837
841
838
837
836
832
833
834
834
833
834
836
838
837
841
836
837
837
836
840
838
842
841
845
846
849
845
848
852
853
856
862
874
892
922
959
1012
1069
1138
1199
1240
1256
1233
1167
1066
951
838
756
715
715
744
784
819
849
864
872
870
864
860
856
853
854
852
853
857
854
854
855
855
856
856
858
861
861
862
862
860
858
856
857
856
858
858
860
860
861
858
860
858
857
855
857
855
857
858
861
864
863
862
861
859
858
858
857
857
859
859
862
862
863
862
864
861
859
860
858
860
860
860
865
867
867
868
868
868
867
865
862
863
865
868
872
874
875
874
873
875
874
873
875
875
877
879
880
880
881
882
882
881
882
882
881
881
884
885
886
889
886
888
886
885
884
883
886
887
888
890
889
890
891
891
890
888
886
883
881
880
881
878
877
873
872
869
867
861
855
852
852
848
844
847
847
846
846
846
841
841
840
836
837
837
835
837
838
841
840
838
838
838
835
836
835
835
837
838
838
840
841
839
840
838
837
836
837
837
839
841
842
845
845
844
841
842
841
842
840
841
844
845
846
849
846
847
845
842
840
840
839
839
841
842
844
843
844
844
842
837
839
836
834
836
837
835
839
839
839
837
838
840
837
835
837
837
838
840
842
844
845
846
850
849
848
848
852
853
857
862
865
870
868
866
865
862
859
858
859
861
862
862
862
861
859
856
852
848
841
837
835
834
833
834
835
836
837
835
834
832
831
828
830
828
829
827
829
831
831
830
831
830
830
829
827
826
828
830
833
835
835
837
837
839
838
837
839
842
844
844
847
850
853
860
869
882
908
941
989
1054
1123
1187
1234
1252
1221
1149
1040
913
799
725
698
716
755
800
838
861
869
871
865
858
852
847
847
846
848
850
854
857
856
857
854
853
852
850
851
853
854
854
856
857
856
858
857
857
858
857
856
856
858
858
859
860
862
860
859
858
858
855
857
858
859
859
862
862
865
865
861
860
861
860
861
860
861
860
864
866
866
864
865
867
866
864
864
863
866
868
870
872
873
873
873
871
870
872
869
871
875
876
877
877
876
875
877
877
875
876
875
878
880
882
883
884
885
887
887
885
886
887
887
887
889
890
892
892
890
891
891
888
888
887
888
884
886
888
888
891
892
891
889
884
882
879
874
870
867
868
865
862
860
856
856
850
846
844
841
839
840
839
839
840
837
838
837
835
834
831
831
831
833
832
836
837
837
837
837
837
836
833
835
837
837
839
841
843
844
842
842
841
841
841
841
841
844
845
847
848
846
848
847
846
845
841
842
841
842
841
845
847
845
846
845
839
837
839
838
839
841
841
840
843
842
843
840
838
838
836
833
836
839
841
840
844
845
846
845
847
846
849
847
852
852
856
859
864
867
866
868
867
866
862
859
860
861
864
865
865
866
867
862
858
855
847
845
842
838
838
839
839
839
838
838
835
836
835
834
833
831
832
834
836
835
837
836
832
832
833
834
831
832
835
837
840
840
841
841
842
841
843
844
845
847
849
854
864
871
890
916
951
1003
1064
1136
1203
1252
1270
1246
1169
1058
930
812
733
702
712
752
794
835
862
874
877
872
864
855
854
850
849
849
850
855
856
857
857
856
858
858
855
857
857
857
856
858
860
859
864
863
859
861
861
861
859
859
856
856
861
860
862
864
862
863
862
860
858
858
859
859
862
862
864
864
864
865
865
864
862
861
863
865
868
868
872
872
870
869
871
871
869
868
869
870
871
875
875
878
875
876
877
874
874
874
873
875
878
882
883
886
886
885
883
882
885
884
885
887
888
890
893
895
894
895
895
892
893
893
894
893
897
894
896
899
898
897
896
895
896
893
896
895
894
894
893
890
887
885
881
878
873
866
863
863
862
859
858
854
855
851
850
849
846
842
842
841
842
843
843
844
842
842
840
836
836
836
836
839
842
841
843
844
843
843
843
842
843
842
843
843
847
847
849
848
849
852
850
851
848
848
849
849
852
855
855
857
854
857
852
853
850
852
850
851
851
851
851
854
853
851
851
849
848
846
847
847
847
848
849
852
850
849
848
847
849
846
846
848
848
849
848
851
847
847
847
847
845
844
842
843
846
847
854
856
858
859
862
864
865
863
866
868
869
876
880
881
879
878
877
875
874
872
873
874
876
875
875
872
870
865
862
856
853
848
845
845
845
848
847
850
848
848
845
845
842
841
840
843
844
843
846
847
848
845
845
843
843
843
843
845
846
850
851
855
856
857
857
858
859
860
861
867
875
887
908
939
981
1036
1104
1175
1238
1279
1279
1235
1149
1035
912
807
736
714
724
762
801
838
862
874
878
878
878
875
871
869
866
866
866
866
866
867
869
869
870
872
868
872
870
869
868
866
867
870
871
869
872
873
873
872
871
870
870
870
870
870
872
870
871
872
874
875
874
874
871
872
871
871
873
875
876
878
878
878
878
878
875
877
876
876
881
879
880
882
880
880
879
881
879
878
879
879
880
882
882
883
882
886
883
884
884
885
887
887
888
890
891
895
895
893
893
895
895
895
896
897
898
902
902
904
905
904
901
904
903
901
901
902
905
902
904
903
907
906
906
904
901
898
896
898
897
893
894
891
888
884
882
879
876
872
867
867
868
865
864
865
866
861
859
860
857
854
855
855
854
855
854
857
858
857
857
857
855
853
854
853
855
856
856
858
858
857
859
856
855
856
858
859
861
863
864
864
866
864
864
862
862
859
860
859
859
864
865
865
865
866
863
864
861
861
862
861
859
863
861
863
863
863
862
859
858
857
858
858
858
859
859
860
860
861
861
856
856
854
854
854
856
855
858
860
860
858
855
857
856
852
851
854
856
857
857
859
859
859
860
858
855
857
855
855
858
858
860
860
859
859
857
856
854
854
856
855
855
855
859
862
862
861
857
856
855
851
856
858
859
860
860
862
865
865
868
867
868
868
871
876
879
880
880
884
888
889
886
887
885
881
879
880
880
881
883
885
885
883
884
880
878
875
872
869
867
865
862
860
861
863
862
860
858
858
856
857
858
860
860
861
861
860
859
858
856
855
856
857
857
860
860
861
864
864
864
864
865
865
863
866
869
872
874
879
879
882
888
898
915
944
984
1036
1101
1173
1237
1283
1291
1258
1185
1077
955
841
760
723
726
756
797
837
863
878
885
885
882
877
875
875
873
876
878
879
879
880
879
877
877
878
878
878
878
878
879
882
882
881
881
882
878
876
875
879
883
885
884
885
881
884
884
883
881
879
880
881
883
884
882
887
884
883
882
880
883
879
880
882
884
883
884
887
885
888
887
889
886
882
883
885
887
890
888
887
890
890
888
890
889
888
888
892
892
895
895
898
898
899
897
897
896
896
896
897
899
899
902
904
902
901
901
900
896
898
897
897
896
897
899
900
901
901
902
901
900
901
899
897
900
900
898
898
898
895
893
888
885
879
876
876
875
873
873
877
871
871
868
866
865
863
863
861
862
863
865
868
866
864
863
860
859
861
857
861
863
862
863
863
863
863
863
