994
994
994
994
994
994
994
994
995
997
1002
1008
1016
1024
1049
1121
1209
1221
1149
1074
1043
1044
1048
1046
1040
1034
1032
1031
1033
1036
1036
1033
1027
1026
1024
1024
1020
1017
1011
1009
1002
995
988
979
970
962
948
933
922
911
900
891
883
874
866
858
852
848
847
844
844
845
847
850
853
855
859
860
864
870
880
893
902
908
914
926
935
948
955
962
964
970
977
979
981
980
979
980
982
984
988
986
983
983
982
983
984
984
986
989
991
998
995
999
998
1001
1005
1007
1008
1008
1007
1009
1011
1014
1015
1014
1014
1015
1017
1021
1020
1017
1019
1018
1022
1022
1025
1023
1023
1023
1026
1028
1029
1028
1027
1028
1031
1034
1032
1033
1032
1031
1035
1037
1036
1035
1035
1037
1040
1038
1042
1040
1038
1039
1041
1044
1043
1042
1040
1040
1043
1043
1042
1042
1042
1042
1039
1041
1045
1040
1037
1037
1038
1039
1037
1035
1031
1031
1031
1031
1029
1026
1024
1020
1022
1021
1020
1014
1012
1012
1011
1011
1008
1005
1004
1005
1004
1006
1004
1002
997
997
999
1000
1001
997
994
995
995
997
997
995
993
994
996
996
995
994
994
990
993
995
997
994
992
993
992
997
995
994
991
993
996
997
993
994
991
991
992
994
994
994
994
989
991
993
992
990
989
987
992
992
991
988
986
985
988
988
987
985
982
983
984
984
983
980
976
978
980
981
979
979
975
977
978
981
981
977
975
977
978
979
977
974
972
974
975
978
975
974
974
973
974
975
972
974
968
972
973
973
973
974
970
972
973
976
977
978
982
983
997
1016
1065
1150
1193
1150
1076
1036
1033
1034
1030
1025
1022
1016
1017
1016
1014
1015
1012
1013
1010
1006
1001
1000
998
997
990
980
971
964
958
954
944
931
911
898
890
882
874
862
850
843
840
839
838
837
835
837
841
843
845
843
842
848
851
856
864
874
883
892
902
911
920
928
933
943
947
954
958
959
959
960
965
967
969
971
972
973
972
970
972
971
971
971
975
978
984
984
984
987
989
993
992
995
994
995
997
998
999
999
997
999
1000
1003
1003
1002
1001
1002
1005
1006
1006
1006
1005
1004
1007
1011
1010
1005
1008
1007
1008
1012
1014
1010
1010
1010
1012
1015
1013
1013
1013
1014
1015
1019
1018
1018
1014
1016
1018
1023
1024
1023
1020
1021
1024
1026
1025
1026
1024
1023
1027
1027
1027
1025
1024
1023
1023
1025
1024
1021
1018
1017
1017
1017
1016
1012
1008
1008
1008
1009
1006
1004
1000
1000
1001
1001
999
995
992
992
994
992
993
990
989
989
988
989
989
987
984
982
986
986
986
985
981
981
984
985
983
980
977
980
981
983
982
979
977
976
978
979
978
975
977
975
977
977
978
976
972
972
972
974
971
970
968
971
972
973
971
969
967
967
969
971
970
969
966
967
966
969
970
967
962
963
962
965
965
965
962
963
964
965
964
961
960
962
963
963
961
960
957
959
961
961
963
961
960
960
962
962
959
961
960
960
958
962
963
960
959
960
962
963
961
959
958
960
962
963
965
965
963
964
969
970
970
972
976
991
1023
1088
1178
1205
1137
1056
1021
1023
1027
1019
1009
1007
1007
1008
1007
1008
1005
1003
1002
998
995
987
985
982
977
971
963
952
942
932
922
905
885
871
858
851
840
831
825
821
815
814
817
819
815
815
816
820
823
830
838
842
850
863
877
887
898
907
915
925
932
939
944
947
947
949
955
957
961
962
959
962
965
967
966
967
968
970
979
987
988
989
989
990
997
1002
1006
1008
1007
1012
1011
1010
1008
1005
1003
1004
1003
1006
1006
1005
1004
1004
1008
1010
1009
1006
1004
1005
1007
1012
1014
1012
1013
1016
1018
1020
1021
1016
1014
1015
1018
1023
1023
1019
1018
1023
1024
1024
1027
1026
1023
1028
1030
1030
1036
1037
1030
1033
1035
1034
1034
1033
1029
1030
1031
1031
1030
1026
1024
1021
1025
1023
1020
1018
1013
1014
1011
1010
1005
1002
999
1000
998
1002
1001
999
993
992
990
989
988
986
984
983
985
986
986
984
984
983
983
986
984
985
982
979
979
980
979
971
970
973
976
977
975
974
971
972
969
971
973
973
969
973
973
972
972
970
970
970
972
971
969
968
964
966
966
967
967
964
960
965
966
966
964
961
960
961
962
963
963
960
960
960
963
964
963
961
960
959
957
958
958
960
958
958
961
959
959
958
957
959
961
962
961
959
955
954
956
958
959
959
958
956
957
959
959
959
957
956
958
960
962
960
957
958
960
961
966
962
961
964
968
970
973
979
991
1028
1113
1184
1156
1073
1020
1013
1021
1024
1018
1014
1008
1008
1010
1014
1011
1010
1005
1005
1003
1003
1004
996
989
982
975
968
959
947
929
911
894
884
874
859
845
835
830
826
825
822
817
818
816
823
822
826
827
834
845
858
873
879
887
897
912
921
933
936
941
946
951
955
956
959
958
964
963
965
966
963
961
962
964
966
970
973
974
980
981
984
986
989
985
990
991
992
994
991
991
994
995
997
996
997
994
997
1002
1002
1003
1002
999
1003
1004
1005
1004
1002
1003
1004
1007
1010
1008
1007
1008
1010
1014
1015
1012
1012
1010
1014
1017
1017
1016
1013
1017
1018
1021
1023
1023
1023
1025
1027
1029
1032
1029
1029
1032
1034
1037
1038
1038
1037
1038
1041
1044
1046
1044
1040
1041
1039
1036
1031
1027
1024
1022
1023
1020
1018
1014
1008
1007
1008
1011
1008
1005
1003
1001
1002
1002
1000
999
995
996
997
997
996
993
990
991
994
994
990
989
989
989
990
990
991
991
986
986
986
989
989
986
984
986
986
985
985
983
982
985
984
988
987
986
984
984
984
987
982
982
981
982
982
982
981
982
976
978
981
981
980
978
976
976
976
979
979
976
975
975
975
976
976
973
973
973
974
976
976
974
973
972
975
975
973
971
971
971
972
973
974
972
967
970
971
970
972
970
969
969
972
972
971
970
969
970
969
972
972
969
968
968
971
973
974
972
972
973
976
981
985
994
1016
1086
1182
1200
1120
1043
1019
1025
1029
1029
1024
1017
1014
1015
1015
1016
1014
1007
1005
1002
1000
998
992
981
970
961
955
944
929
910
892
880
871
860
847
835
829
827
823
826
824
823
821
823
826
832
838
845
856
869
883
894
906
914
922
929
938
945
949
950
949
951
955
960
964
965
964
963
965
968
969
968
968
969
975
981
983
982
979
982
986
991
992
991
990
993
992
995
995
992
993
995
999
999
1000
1000
998
1001
1003
1003
1004
1003
1002
1002
1007
1009
1006
1010
1006
1010
1011
1014
1012
1013
1013
1014
1018
1018
1021
1022
1020
1021
1023
1025
1025
1025
1025
1026
1029
1033
1032
1031
1033
1031
1034
1033
1036
1035
1030
1032
1033
1036
1035
1030
1029
1029
1030
1029
1025
1024
1020
1021
1022
1020
1019
1014
1013
1012
1011
1010
1009
1007
1002
1002
1003
1003
1000
997
995
995
995
998
994
994
992
990
992
994
991
991
987
986
988
987
987
985
982
981
984
983
985
982
981
982
984
986
988
989
987
984
985
988
987
987
985
987
989
991
995
993
992
994
993
993
993
986
982
981
981
982
981
977
974
973
975
973
974
972
968
970
969
970
970
968
963
967
966
971
968
965
963
964
968
966
968
966
964
965
966
968
967
965
965
966
966
968
969
966
967
966
969
967
967
967
965
965
967
970
971
969
968
967
971
974
974
977
975
980
988
1002
1043
1135
1215
1198
1129
1097
1110
1130
1148
1168
1199
1236
1272
1299
1309
1301
1266
1219
1166
1120
1077
1034
995
963
945
937
934
933
936
937
940
939
937
940
940
943
942
938
938
938
939
939
938
934
931
932
934
936
935
933
928
931
932
932
932
928
924
924
926
923
925
924
919
923
922
922
918
917
914
915
917
915
916
914
910
911
914
915
913
908
908
906
909
909
910
907
904
908
907
908
906
906
904
907
910
911
911
910
907
911
912
915
916
913
915
917
922
925
925
926
926
931
933
936
935
937
939
945
946
949
952
955
955
958
962
964
966
965
964
968
970
971
971
971
972
971
972
973
973
974
972
973
972
974
973
973
971
973
975
974
973
970
970
970
971
972
972
969
967
965
967
971
970
969
964
968
968
969
967
964
964
963
963
965
967
963
962
962
963
965
965
962
960
961
963
964
964
963
960
962
962
966
967
963
963
962
964
965
966
963
963
964
967
966
966
965
962
964
964
968
970
966
966
965
967
970
966
964
966
966
968
969
969
968
966
967
969
970
969
967
965
966
965
966
968
966
962
964
966
968
968
966
965
968
971
972
973
974
970
971
974
974
975
975
973
974
979
982
984
983
980
982
984
984
981
975
975
974
974
975
978
974
972
971
970
974
974
975
975
980
986
995
1014
1058
1138
1206
1178
1097
1043
1029
1033
1033
1028
1027
1024
1022
1016
1018
1022
1023
1019
1018
1014
1013
1011
1012
1009
1006
998
995
989
980
972
965
952
938
922
911
904
901
893
889
882
880
877
877
874
882
892
905
917
933
941
954
960
963
957
952
943
937
934
932
927
926
925
930
940
945
952
956
957
962
961
964
966
966
965
971
971
976
980
980
980
979
983
983
984
985
984
985
987
988
989
988
987
989
991
991
991
989
988
989
992
993
992
994
991
995
998
1000
999
997
995
997
1000
1004
1002
1002
1001
1003
1006
1008
1006
1005
1004
1006
1007
1008
1009
1008
1009
1008
1010
1014
1014
1012
1011
1014
1015
1021
1020
1018
1018
1019
1024
1024
1024
1022
1021
1021
1022
1026
1026
1026
1025
1025
1026
1025
1027
1023
1022
1022
1023
1021
1021
1019
1015
1016
1016
1014
1013
1012
1006
1005
1007
1008
1007
1004
1001
1002
1001
1002
1001
998
997
995
996
995
994
990
987
987
988
988
987
987
983
984
984
986
986
983
978
980
984
982
981
979
976
979
980
981
979
980
977
980
983
984
979
977
975
974
977
980
982
980
978
975
976
976
975
974
972
973
973
975
975
974
974
976
978
980
978
976
973
973
976
976
977
974
971
973
972
975
974
972
970
972
974
974
972
972
973
974
974
976
975
973
972
972
973
972
972
969
969
970
973
971
972
969
963
966
967
969
969
968
966
967
968
969
971
967
964
968
968
969
969
967
966
967
970
972
969
968
965
965
967
969
967
971
970
975
980
988
1003
1038
1120
1201
1178
1094
1034
1019
1024
1027
1024
1019
1018
1016
1012
1013
1015
1012
1009
1008
1008
1010
1012
1014
1006
996
982
971
960
947
927
904
885
873
867
854
841
826
814
809
811
810
809
803
804
810
815
820
824
826
830
838
850
861
870
874
881
892
903
915
925
929
932
939
943
948
949
949
953
957
962
963
966
961
957
957
959
959
959
961
965
971
974
979
978
978
979
982
987
990
989
989
991
993
996
995
996
996
995
998
1002
1005
1002
1003
1001
1003
1005
1007
1006
1008
1006
1007
1009
1011
1012
1008
1009
1009
1011
1012
1012
1014
1010
1010
1013
1014
1014
1016
1015
1017
1020
1020
1019
1020
1019
1021
1021
1022
1023
1022
1020
1019
1023
1024
1026
1023
1021
1024
1024
1025
1023
1024
1022
1022
1024
1023
1022
1019
1019
1021
1020
1021
1017
1014
1013
1011
1010
1009
1009
1006
999
1003
1001
999
999
997
993
993
994
994
990
990
988
988
988
991
988
984
983
985
987
988
984
982
982
981
983
985
982
982
980
980
982
983
981
983
979
981
983
984
983
982
981
980
984
984
982
981
979
980
983
982
983
981
979
980
980
980
978
978
975
978
979
980
979
978
973
975
976
976
976
974
972
972
973
974
973
973
970
969
971
973
973
968
963
968
970
968
968
967
966
967
969
968
968
967
965
964
968
966
966
966
961
964
966
966
966
964
961
964
966
965
968
966
963
963
964
967
966
965
962
965
967
967
969
968
968
976
986
1004
1061
1154
1189
1126
1051
1020
1021
1027
1021
1017
1016
1016
1016
1016
1013
1013
1011
1013
1009
1005
998
991
985
977
968
958
944
929
910
898
887
877
861
849
839
832
828
820
817
816
814
816
817
816
816
821
829
838
846
857
868
880
894
905
916
923
933
940
948
955
957
959
961
966
973
976
979
977
977
975
976
973
970
970
969
972
975
978
980
981
980
984
985
987
988
988
988
989
991
992
993
994
992
993
995
998
996
996
994
995
998
999
999
999
997
998
1002
1004
1001
1000
1000
1002
1007
1005
1005
1006
1005
1009
1009
1010
1013
1009
1009
1012
1013
1013
1014
1012
1011
1013
1016
1017
1016
1017
1018
1020
1023
1021
1024
1023
1022
1025
1023
1024
1027
1025
1024
1023
1025
1026
1024
1021
1020
1019
1021
1017
1016
1013
1010
1012
1010
1009
1008
1005
1003
1003
1002
1001
998
995
992
991
994
995
989
988
983
984
984
985
985
981
979
979
981
980
979
976
974
975
977
976
974
973
972
970
972
974
973
971
970
970
971
972
970
969
966
966
969
967
965
966
966
963
967
968
964
962
961
962
962
962
960
960
960
959
962
962
960
958
957
955
956
956
959
954
954
956
958
956
955
952
950
952
954
954
952
950
946
949
953
951
951
949
947
947
948
951
949
947
946
948
950
951
948
947
945
947
948
948
950
946
946
947
950
950
950
950
948
952
951
952
952
951
954
956
962
968
975
993
1036
1125
1200
1174
1087
1026
1010
1014
1017
1011
1005
1000
999
1000
999
1001
999
995
992
990
992
990
984
979
970
962
957
950
943
935
921
908
891
881
868
858
844
835
826
820
815
811
807
807
810
809
809
808
807
811
815
822
827
836
844
861
870
880
888
897
905
917
924
931
933
936
936
941
942
945
945
947
949
951
956
956
954
952
952
954
958
959
960
959
962
965
968
969
967
971
971
973
976
978
974
974
975
976
978
980
980
980
979
983
987
989
990
988
988
990
995
994
995
993
992
999
1002
1005
1007
1008
1008
1010
1010
1010
1011
1006
1004
1007
1005
1008
1006
1004
1002
1004
1005
1005
1007
1005
1005
1007
1009
1010
1008
1010
1008
1012
1015
1017
1014
1012
1013
1014
1015
1015
1013
1011
1009
1012
1011
1011
1008
1006
1000
1003
1004
1001
999
996
991
992
995
993
992
987
983
984
983
982
983
978
977
976
979
978
974
973
971
972
973
973
971
969
969
968
970
970
969
967
965
967
967
965
965
965
963
965
967
965
964
962
960
963
961
962
960
957
957
958
961
958
960
959
954
959
959
960
956
955
953
955
956
955
953
952
951
952
953
953
955
952
949
951
952
953
953
950
947
951
951
952
947
947
947
948
950
951
951
948
947
947
948
947
947
947
946
947
950
949
950
948
946
948
951
952
953
949
949
950
950
953
953
952
953
952
956
958
959
960
965
974
993
1046
1134
1177
1121
1047
1012
1011
1012
1010
1004
999
999
998
997
995
995
992
991
989
983
980
976
972
968
958
952
944
935
929
919
906
888
875
863
854
843
834
823
812
813
810
810
810
809
808
808
810
814
816
821
827
835
845
858
870
878
887
895
906
917
923
928
932
937
941
942
945
945
946
946
951
955
957
956
954
952
955
958
960
958
961
963
969
970
972
973
973
973
976
981
982
982
980
979
982
985
986
987
987
984
988
989
991
991
988
989
992
994
993
991
994
993
998
999
1001
1001
1000
997
1002
1004
1005
1002
1003
1003
1006
1005
1007
1007
1008
1008
1013
1015
1016
1012
1013
1014
1016
1018
1020
1020
1018
1016
1020
1022
1024
1023
1026
1025
1026
1025
1026
1024
1023
1021
1025
1024
1025
1023
1020
1018
1020
1021
1021
1019
1014
1009
1008
1002
1000
999
994
990
992
990
988
986
983
983
982
983
983
979
979
978
975
976
976
978
975
976
974
977
975
974
972
972
972
973
972
973
970
972
970
973
969
968
967
968
968
970
969
968
967
965
967
968
968
967
965
964
964
964
964
963
958
959
961
964
964
962
960
959
960
960
960
960
958
954
959
960
957
958
955
953
953
955
955
955
954
954
956
959
959
959
954
952
952
955
955
956
953
952
952
955
956
954
955
953
954
954
957
954
953
951
954
956
955
954
955
954
956
957
957
957
958
956
961
971
977
999
1052
1143
1199
1155
1069
1020
1011
1019
1018
1014
1007
1003
1000
997
999
998
996
993
985
983
985
982
980
975
965
957
951
944
934
923
905
885
870
859
855
841
831
819
812
811
810
808
805
805
808
809
810
812
815
817
824
831
840
848
860
870
884
899
909
919
926
931
938
944
948
946
946
945
948
953
957
960
960
954
956
958
957
958
959
963
966
970
975
976
977
978
979
982
982
987
985
986
989
989
990
987
987
985
989
995
1000
1000
998
996
996
1000
1000
1003
1002
1002
1003
1005
1006
1004
1003
1004
1008
1011
1016
1015
1014
1016
1018
1019
1019
1019
1013
1014
1013
1019
1022
1023
1022
1023
1023
1025
1026
1025
1027
1026
1029
1029
1025
1025
1022
1023
1025
1026
1028
1028
1024
1021
1020
1019
1018
1013
1009
1007
1007
1005
1003
999
995
992
993
993
992
992
991
989
988
986
985
981
978
976
978
981
978
977
972
971
973
974
974
970
968
969
972
975
972
967
969
969
969
970
971
971
973
975
975
977
975
975
974
974
978
981
981
981
982
983
984
985
983
978
977
973
971
972
972
968
963
960
962
965
965
964
964
962
961
961
960
961
960
962
961
963
964
962
960
960
962
962
964
959
959
958
960
960
959
959
960
957
959
960
961
961
957
959
961
964
964
963
963
962
964
966
965
966
966
966
968
970
969
969
972
972
974
976
983
994
1016
1056
1150
1243
1241
1177
1137
1145
1183
1217
1248
1277
1306
1324
1323
1299
1256
1208
1160
1119
1085
1046
1007
968
944
931
930
933
932
932
934
933
937
938
941
941
939
939
939
941
943
941
939
937
938
938
939
936
937
934
937
937
935
935
934
932
932
932
930
927
925
924
926
926
926
923
921
920
922
922
921
920
916
917
914
917
916
914
913
912
911
912
910
910
907
907
907
906
907
905
904
902
904
905
905
903
903
902
905
907
909
906
906
905
908
910
911
912
912
914
916
920
923
923
923
925
930
935
937
938
940
940
946
952
953
956
955
956
964
967
968
969
967
969
969
973
971
972
972
974
975
975
978
977
975
975
975
976
979
977
977
976
977
978
979
976
974
975
976
979
976
977
971
971
973
975
973
971
972
970
973
975
973
971
972
969
971
973
972
970
969
970
971
976
974
973
973
971
974
975
975
973
971
971
977
979
977
976
976
975
975
980
981
979
977
973
979
979
979
980
979
977
978
980
981
979
976
977
977
979
981
979
978
977
978
979
981
977
977
976
975
978
980
977
978
976
978
978
978
974
978
977
979
981
984
983
982
981
984
988
988
986
985
984
990
993
995
994
995
997
996
998
996
991
987
985
986
988
987
984
981
983
984
985
985
984
983
982
986
993
995
1004
1017
1058
1149
1223
1192
1101
1044
1036
1044
1049
1042
1034
1031
1029
1032
1037
1037
1034
1032
1030
1030
1032
1031
1030
1023
1019
1013
1007
1000
988
984
977
969
967
966
962
958
952
941
935
934
938
946
957
970
980
991
992
985
973
964
957
944
936
928
921
920
925
932
940
945
949
954
956
960
962
961
963
964
966
971
973
972
972
976
976
978
975
977
977
979
980
980
980
980
978
981
982
981
982
980
979
981
981
985
985
983
982
983
985
985
986
983
984
988
989
990
988
988
985
991
992
993
992
992
993
993
996
998
996
995
995
997
1000
1002
1002
999
999
1002
1005
1008
1006
1005
1005
1007
1010
1010
1009
1011
1011
1014
1016
1017
1015
1013
1013
1016
1018
1018
1016
1018
1015
1016
1018
1018
1019
1017
1015
1016
1018
1017
1014
1013
1011
1012
1012
1010
1008
1005
1003
1003
1005
1002
1002
1000
999
999
1000
998
997
994
992
993
996
993
994
993
990
991
994
991
990
988
987
989
990
990
989
985
986
989
992
990
989
987
987
989
990
990
988
987
984
987
988
988
987
988
984
984
987
989
987
987
984
986
987
987
983
982
980
984
985
986
984
982
982
983
985
983
983
982
982
983
985
984
980
978
979
981
984
982
980
981
978
979
980
982
981
979
977
982
980
979
978
976
976
977
978
978
979
977
974
976
976
979
977
976
976
978
977
979
975
974
973
974
974
977
973
974
973
977
972
974
972
973
971
974
976
978
974
976
980
983
988
998
1015
1054
1138
1211
1188
1107
1048
1031
1037
1041
1039
1034
1029
1028
1028
1034
1034
1038
1037
1034
1031
1031
1031
1028
1024
1017
1009
1003
997
991
980
971
963
954
941
926
912
902
890
882
871
859
851
844
840
839
837
838
837
835
837
838
845
847
849
855
862
874
887
897
903
912
919
928
939
946
950
952
956
959
964
965
963
965
967
972
975
978
976
973
973
975
976
977
976
975
978
983
990
991
992
993
993
998
1001
1002
1002
1002
1000
1003
1005
1007
1006
1007
1009
1011
1014
1015
1017
1014
1015
1018
1020
1022
1021
1018
1019
1021
1026
1027
1026
1026
1026
1028
1031
1032
1033
1031
1027
1030
1035
1037
1035
1032
1035
1035
1039
1038
1037
1036
1034
1036
1041
1041
1038
1036
1036
1040
1042
1041
1040
1038
1037
1037
1038
1037
1034
1033
1031
1029
1031
1029
1025
1023
1021
1021
1019
1019
1016
1013
1011
1010
1011
1007
1006
1002
1000
1001
1000
999
997
995
993
993
996
995
992
993
990
991
992
992
988
987
985
988
989
988
989
986
986
985
988
984
985
986
983
986
990
989
988
985
984
985
988
988
987
985
983
987
987
985
987
985
986
986
988
988
983
985
984
987
987
986
983
981
983
986
989
988
985
986
983
983
985
983
984
981
981
984
983
982
981
980
978
978
980
982
982
979
978
979
979
980
978
975
976
976
979
979
977
978
976
979
978
981
979
976
975
978
978
979
978
976
974
976
976
978
979
976
977
978
980
983
984
982
981
980
986
986
984
984
985
992
1000
1016
1052
1132
1206
1188
1111
1053
1038
1042
1041
1037
1033
1032
1030
1025
1025
1024
1023
1021
1016
1015
1013
1012
1009
1005
998
987
979
972
967
958
948
932
913
903
892
882
871
861
849
843
839
837
833
833
829
831
835
836
839
841
847
857
868
876
885
899
906
912
926
934
942
946
953
958
964
965
969
967
966
966
976
980
980
977
977
978
981
982
980
978
978
984
993
992
995
994
998
1001
1005
1009
1010
1010
1008
1007
1011
1010
1010
1008
1010
1013
1014
1016
1016
1015
1016
1019
1021
1023
1018
1017
1016
1017
1021
1019
1019
1021
1020
1025
1028
1027
1024
1022
1020
1023
1027
1028
1026
1025
1024
1029
1030
1030
1030
1027
1029
1031
1033
1033
1035
1031
1028
1031
1034
1033
1031
1029
1031
1034
1035
1037
1035
1033
1029
1029
1029
1028
1024
1025
1021
1022
1023
1017
1015
1013
1008
1010
1012
1013
1009
1005
1004
1003
1005
1005
999
995
993
995
1000
997
995
992
990
992
993
992
991
987
985
988
990
989
988
986
985
986
987
987
985
983
986
988
988
989
987
986
985
986
986
984
983
980
980
981
984
984
985
984
982
985
985
986
983
979
981
981
982
982
981
978
979
979
978
979
975
973
973
976
980
979
980
978
978
978
978
975
970
969
969
973
976
976
978
974
974
972
976
975
975
975
970
971
972
972
971
974
972
976
976
975
974
971
969
972
976
974
972
970
967
970
974
975
977
975
976
976
977
977
976
974
976
978
981
984
988
998
1023
1080
1172
1222
1167
1078
1030
1026
1039
1037
1031
1023
1021
1024
1026
1027
1025
1023
1021
1022
1025
1023
1021
1012
1006
999
994
988
975
960
938
920
909
898
887
873
860
850
847
840
837
830
829
829
829
831
828
829
832
839
847
855
866
875
882
891
904
912
922
930
936
941
950
954
955
956
956
961
964
966
965
963
963
965
968
971
971
972
977
983
989
989
991
992
994
998
998
1003
1002
1005
1005
1009
1013
1018
1018
1020
1020
1023
1024
1023
1020
1018
1016
1018
1020
1019
1016
1016
1016
1013
1017
1020
1019
1017
1017
1020
1023
1021
1022
1021
1020
1023
1027
1027
1027
1029
1026
1029
1033
1030
1032
1032
1032
1035
1037
1037
1038
1038
1039
1042
1044
1042
1043
1042
1040
1044
1045
1045
1043
1043
1042
1042
1044
1043
1041
1038
1037
1037
1039
1037
1035
1030
1029
1030
1032
1028
1025
1021
1020
1022
1023
1021
1017
1014
1013
1016
1017
1017
1012
1010
1010
1010
1013
1011
1009
1008
1006
1008
1009
1008
1007
1004
1003
1003
1008
1007
1005
1005
1003
1006
1004
1002
1004
1002
1002
1004
1006
1004
1002
1000
1000
1003
1004
1002
1002
1001
998
998
1000
1001
1000
999
1000
1000
1001
1000
998
998
995
996
999
997
995
993
994
996
994
992
993
991
990
991
995
992
990
991
989
989
992
989
989
986
984
988
990
989
988
985
986
986
988
987
986
984
985
987
988
987
987
983
984
987
989
988
988
985
983
987
987
987
986
986
985
989
990
989
989
989
989
996
1000
1006
1018
1055
1145
1206
1162
1079
1039
1039
1048
1048
1041
1039
1038
1040
1038
1039
1039
1037
1034
1031
1022
1020
1014
1005
995
985
975
961
946
928
913
901
889
878
868
861
858
852
847
848
848
848
846
846
849
855
864
870
881
894
902
912
924
936
945
954
960
969
976
976
977
977
977
984
990
990
990
987
989
991
994
995
994
993
993
1002
1006
1006
1007
1007
1010
1014
1016
1016
1017
1017
1016
1018
1021
1021
1020
1018
1019
1021
1025
1025
1027
1027
1025
1027
1032
1029
1029
1026
1028
1032
1033
1035
1035
1033
1033
1036
1038
1038
1037
1037
1038
1041
1042
1040
1041
1042
1041
1043
1048
1047
1046
1044
1050
1053
1055
1057
1058
1057
1058
1062
1064
1063
1063
1063
1062
1065
1069
1069
1070
1070
1069
1074
1075
1069
1067
1061
1057
1056
1056
1053
1051
1048
1045
1042
1043
1039
1036
1031
1030
1029
1029
1027
1025
1022
1021
1022
1024
1017
1017
1014
1013
1014
1015
1015
1013
1010
1011
1012
1012
1011
1009
1006
1009
1009
1009
1007
1007
1005
1004
1006
1009
1009
1006
1004
1001
1003
1005
1004
1002
1002
1000
1001
1002
1001
1002
998
997
999
1002
1000
998
997
997
998
999
999
999
996
995
995
998
997
996
994
995
993
996
996
992
988
988
992
993
994
992
990
986
990
990
988
986
986
985
987
990
989
987
984
986
987
987
989
986
984
982
986
987
986
986
985
984
987
988
986
985
982
982
986
988
987
987
985
986
989
989
989
992
995
1000
1016
1051
1127
1211
1205
1124
1056
1038
1042
1045
1039
1031
1030
1030
1034
1030
1029
1026
1025
1027
1024
1018
1012
1011
1006
1001
992
982
972
964
954
940
926
911
899
889
878
867
856
852
845
844
840
841
840
837
838
838
842
846
853
860
871
883
895
908
916
925
932
942
949
956
960
964
964
964
969
974
975
976
977
978
983
984
984
982
981
984
985
988
990
992
993
997
997
1001
1004
1004
1005
1007
1009
1011
1010
1008
1006
1007
1012
1016
1016
1015
1014
1015
1017
1020
1018
1019
1020
1017
1021
1023
1023
1021
1023
1022
1026
1028
1031
1031
1029
1026
1029
1030
1033
1034
1031
1031
1034
1034
1035
1033
1035
1035
1037
1040
1040
1043
1040
1042
1044
1044
1045
1045
1043
1044
1047
1050
1048
1047
1046
1046
1048
1048
1046
1044
1042
1041
1043
1044
1041
1038
1035
1033
1032
1033
1033
1028
1024
1025
1024
1021
1019
1017
1013
1014
1013
1011
1011
1008
1003
1005
1003
1003
1003
1002
1001
1001
1001
1001
1002
1003
1000
1001
1004
1004
1005
1003
1001
1002
1003
1005
1004
1005
1002
1006
1008
1010
1011
1008
1008
1006
1008
1005
1002
999
994
995
996
996
993
991
987
987
986
988
988
986
986
983
986
986
986
984
984
982
986
986
986
983
982
981
981
982
980
979
979
979
979
983
982
981
979
976
978
985
982
978
975
979
979
981
977
978
975
974
976
980
981
981
979
980
982
983
985
983
982
983
984
983
990
993
1001
1018
1036
1055
1074
1090
1107
1134
1170
1205
1226
1227
1251
1328
1360
1311
1223
1156
1111
1077
1040
1005
978
964
956
952
956
960
963
962
961
962
964
967
967
964
962
963
962
963
959
957
954
954
957
957
954
952
948
948
949
950
947
945
944
942
943
943
941
938
935
935
937
935
934
932
928
930
931
933
934
929
927
924
925
926
924
921
918
920
917
920
921
918
915
916
918
920
918
918
915
915
919
921
919
918
917
915
918
919
923
925
924
926
929
930
930
930
930
931
935
938
943
942
945
950
952
955
958
960
960
963
966
966
972
974
973
979
980
983
983
983
978
980
985
988
987
984
983
983
987
986
986
986
983
981
985
988
987
985
980
979
982
983
986
982
981
979
980
979
977
977
976
978
980
981
981
980
974
977
976
978
977
975
971
970
971
969
971
972
973
975
974
973
970
971
970
973
976
976
974
972
969
971
974
978
978
976
976
975
977
976
974
971
970
973
978
979
978
977
972
971
973
974
980
982
981
977
977
975
977
973
971
972
974
977
978
973
972
970
970
974
973
971
970
971
973
974
974
973
971
975
978
982
984
985
981
976
978
977
983
983
984
986
987
989
989
984
980
980
984
989
988
984
977
973
972
974
976
977
975
975
972
972
971
970
968
969
976
978
978
974
971
976
978
980
980
982
986
995
1016
1071
1166
1199
1133
1055
1025
1033
1038
1037
1028
1030
1033
1036
1039
1044
1052
1070
1087
1102
1115
1122
1130
1141
1158
1177
1197
1214
1225
1224
1202
1166
1128
1088
1049
1013
978
948
926
913
913
920
926
929
930
930
931
933
936
939
939
937
933
935
938
942
936
935
932
934
937
937
936
935
935
933
933
936
933
934
931
930
932
932
932
929
928
929
928
931
930
927
925
927
927
928
928
926
925
924
926
926
924
927
922
926
928
929
929
929
927
928
930
931
930
928
929
930
933
934
935
934
935
933
937
939
943
941
940
942
945
947
948
951
951
954
955
960
962
962
964
968
972
975
977
976
977
979
982
985
986
985
988
987
988
992
992
989
986
987
988
991
992
992
989
991
991
991
989
988
986
987
986
986
988
986
983
984
984
984
984
982
980
980
982
983
983
980
978
978
978
980
980
977
976
975
974
976
976
975
972
974
975
976
976
971
971
969
973
974
973
968
969
970
971
973
972
973
970
972
974
974
974
973
973
974
976
979
977
977
974
976
978
980
979
978
974
976
980
983
982
980
975
978
981
981
982
980
976
979
982
983
981
980
979
978
981
980
979
978
978
978
978
980
980
977
977
976
981
979
981
977
974
975
977
979
980
977
975
976
977
980
979
976
973
977
979
980
981
979
979
981
984
986
988
987
988
989
991
999
1003
1013
1033
1088
1179
1237
1193
1109
1060
1056
1063
1063
1053
1045
1038
1039
1037
1039
1039
1037
1033
1031
1034
1034
1031
1029
1025
1023
1020
1014
1007
999
989
983
972
955
937
925
915
907
900
889
878
866
861
856
853
853
852
849
845
847
851
849
851
851
855
863
871
882
891
899
903
913
924
934
941
947
951
955
962
968
968
966
965
969
975
979
979
980
977
979
980
980
981
978
977
978
982
988
990
994
991
996
1000
1003
1003
1005
1005
1005
1008
1013
1009
1008
1009
1008
1011
1015
1015
1014
1014
1017
1016
1018
1021
1020
1017
1019
1020
1024
1025
1025
1021
1023
1025
1026
1028
1026
1025
1026
1029
1030
1030
1030
1029
1030
1034
1035
1034
1032
1032
1034
1035
1037
1037
1035
1035
1037
1038
1041
1040
1038
1038
1039
1041
1040
1043
1040
1038
1038
1038
1041
1040
1037
1033
1034
1035
1037
1034
1032
1024
1028
1026
1029
1025
1023
1019
1019
1017
1017
1017
1012
1007
1007
1007
1007
1008
1005
1002
1000
999
1001
997
997
994
993
994
993
997
993
990
987
991
989
989
992
987
987
988
992
988
986
986
983
988
989
987
987
983
986
986
988
986
987
983
986
987
988
987
988
981
986
986
988
987
984
982
984
984
987
986
984
983
985
985
987
987
985
983
983
984
984
986
984
982
983
983
983
983
980
980
982
984
983
981
981
978
979
980
981
981
976
973
974
977
978
976
976
973
974
976
978
976
974
972
973
975
976
977
974
973
973
973
980
975
973
974
973
977
977
975
974
974
975
977
981
981
981
982
991
1005
1043
1130
1198
1158
1078
1031
1031
1036
1034
1027
1023
1023
1023
1023
1023
1019
1018
1018
1019
1017
1015
1010
1010
1004
1001
992
984
976
970
964
951
934
919
907
896
886
875
865
855
847
844
845
844
845
840
840
836
840
844
844
842
847
856
864
875
884
890
895
904
918
928
935
939
941
948
954
957
959
958
958
958
965
968
970
969
968
968
970
971
971
969
966
971
974
980
981
982
980
982
985
990
992
993
993
993
995
996
998
996
996
995
996
1000
1001
999
998
1000
1002
1003
1004
1003
1003
1002
1006
1008
1007
1005
1004
1007
1009
1009
1012
1008
1009
1008
1010
1014
1013
1013
1010
1013
1015
1015
1016
1015
1013
1014
1016
1018
1019
1016
1015
1015
1019
1022
1023
1022
1018
1021
1021
1022
1023
1024
1022
1022
1024
1027
1024
1023
1020
1022
1021
1022
1023
1020
1017
1016
1017
1017
1015
1013
1008
1009
1007
1006
1003
1001
999
998
997
999
997
995
994
992
993
993
993
991
988
988
988
989
989
986
984
985
987
987
986
986
981
984
984
986
986
982
981
982
983
985
983
980
979
980
979
981
980
978
976
977
978
977
978
974
971
973
975
975
975
973
971
972
975
974
973
971
968
972
969
973
969
969
967
965
967
968
968
964
963
964
965
966
965
965
961
961
961
964
965
963
962
962
964
965
963
961
959
960
961
963
963
962
960
961
963
966
964
964
962
963
965
966
965
965
964
965
968
969
970
971
970
982
999
1048
1138
1188
1137
1057
1022
1023
1028
1024
1016
1012
1010
1013
1014
1013
1009
1009
1009
1010
1007
1004
998
997
994
989
982
975
964
958
948
937
917
899
885
878
869
861
848
835
827
821
821
822
819
817
813
814
816
815
819
821
825
833
842
853
867
874
880
892
903
914
923
929
930
937
942
945
947
949
949
953
958
965
967
966
966
968
970
971
973
973
974
978
981
985
988
989
991
997
1000
1003
1006
1001
1000
999
998
999
1000
998
995
995
998
999
998
996
994
997
998
1001
1000
999
997
1002
1001
1004
1004
1002
1000
1004
1005
1008
1007
1007
1004
1007
1010
1012
1014
1010
1009
1010
1012
1013
1016
1017
1015
1015
1019
1019
1019
1018
1015
1018
1021
1024
1021
1022
1019
1020
1023
1022
1020
1019
1014
1017
1018
1018
1016
1013
1010
1008
1007
1012
1009
1008
1003
1003
1001
1003
998
995
992
995
996
994
990
988
986
985
987
986
982
979
976
977
977
979
980
978
975
974
976
977
976
975
973
972
971
973
973
973
969
969
969
972
970
968
967
966
967
969
969
969
964
967
969
966
966
967
964
966
965
967
964
959
959
960
962
966
964
964
959
959
961
961
961
960
957
955
957
957
958
955
954
954
955
955
954
954
952
950
951
953
953
951
947
949
951
952
953
947
946
947
946
949
947
946
944
947
950
952
952
949
944
943
945
948
949
950
950
951
952
948
947
946
944
945
948
951
953
954
950
953
959
965
972
993
1036
1123
1189
1159
1069
1016
1001
1009
1010
1006
1002
995
992
994
996
998
997
995
990
989
987
985
983
981
974
970
962
956
947
939
927
909
892
877
864
853
841
829
821
813
809
808
800
797
795
795
794
794
793
795
798
804
809
816
826
837
848
858
866
876
886
895
904
910
913
919
924
929
932
931
929
932
935
939
942
943
939
937
937
940
941
947
950
952
951
952
956
963
965
965
962
966
972
975
972
970
969
971
974
972
972
967
973
978
975
978
979
976
977
979
982
983
982
979
982
983
987
988
986
989
994
992
991
995
999
1001
998
999
1003
1006
1006
1005
1005
1012
1016
1025
1027
1027
1023
1023
1020
1016
1013
1012
1012
1012
1013
1009
999
999
998
1002
1003
1002
1000
1000
998
999
995
992
991
987
987
990
986
985
982
976
977
976
980
980
977
974
969
971
974
974
974
974
971
974
973
977
975
971
971
971
973
974
971
970
971
973
975
977
974
972
970
969
969
966
970
971
968
967
970
972
970
966
961
961
963
966
966
962
961
963
965
968
963
962
962
960
962
962
960
960
960
962
963
961
960
957
956
957
959
962
961
955
949
950
953
955
954
951
951
951
958
959
957
956
952
954
955
961
960
959
953
954
952
950
948
945
944
945
947
948
946
943
941
943
949
954
954
949
950
951
953
952
951
952
952
953
950
949
954
956
966
979
1004
1064
1154
1176
1106
1034
1002
1009
1018
1015
1006
1005
1004
1006
1007
1005
1001
1001
997
999
997
993
989
984
980
976
969
961
955
944
930
912
896
884
874
867
854
844
835
830
828
835
838
832
820
810
807
815
824
830
839
847
859
870
883
891
902
912
916
924
928
931
931
933
935
943
946
948
950
950
949
948
951
949
948
946
946
954
958
962
962
960
963
969
975
977
977
976
974
972
971
974
977
979
977
976
978
977
977
977
978
981
985
983
979
979
977
976
978
981
986
994
996
1003
1000
993
988
987
988
989
997
1002
1002
999
1000
999
995
997
994
994
999
1003
1004
1003
1002
1001
1000
1000
999
996
996
996
998
997
1002
1004
1007
1007
1005
1002
1000
995
991
989
989
988
985
988
987
984
977
979
982
980
975
972
976
978
979
975
970
965
961
967
968
972
970
966
963
965
967
964
962
961
965
968
969
968
964
959
958
959
964
967
969
972
975
974
975
973
969
971
970
968
969
969
967
960
952
952
952
952
953
953
951
949
950
949
946
947
944
946
948
952
957
958
955
948
940
938
938
940
943
947
948
946
943
938
934
929
930
931
933
935
936
943
945
945
942
938
933
935
940
948
947
942
939
937
941
945
945
940
933
932
936
938
939
937
930
930
935
940
944
945
945
944
943
950
966
978
989
1004
1020
1037
1060
1086
1114
1133
1144
1200
1309
1368
1336
1272
1219
1177
1138
1100
1059
1022
985
957
937
926
919
915
915
922
921
914
904
904
911
913
912
909
906
909
911
912
911
906
905
909
916
916
911
906
903
902
903
904
903
900
894
890
885
887
887
890
884
882
884
887
887
884
881
881
884
887
885
884
878
874
874
873
871
872
869
866
867
865
868
867
863
861
866
867
872
873
873
870
868
869
870
867
865
869
877
878
880
879
874
873
881
892
899
906
902
898
897
898
902
905
905
902
902
904
906
911
916
923
921
919
917
919
921
922
922
923
928
929
926
930
932
933
933
930
926
927
926
928
928
928
932
934
935
934
929
926
922
924
928
931
929
923
918
917
919
922
919
914
916
917
921
919
922
921
921
921
920
920
919
919
922
930
933
927
920
909
904
904
910
915
917
920
920
923
925
923
923
923
921
920
923
930
927
921
915
912
914
916
920
924
924
921
922
924
927
928
921
917
921
923
925
927
926
926
924
927
929
930
925
925
926
925
924
924
924
924
933
938
940
943
939
942
942
942
943
942
943
947
952
949
940
931
929
935
937
935
932
933
936
940
938
932
929
930
930
931
930
928
929
930
934
938
940
941
941
938
937
932
932
935
938
937
935
935
938
940
936
933
930
931
939
949
951
946
949
966
1009
1098
1186
1173
1085
1011
984
977
976
977
983
997
1014
1033
1052
1065
1074
1088
1110
1128
1149
1173
1195
1210
1210
1193
1164
1121
1075
1030
994
958
930
907
893
892
902
908
911
911
910
909
911
910
907
907
908
915
920
920
914
903
899
903
911
914
913
914
913
911
905
900
893
894
900
906
907
905
900
894
888
893
897
903
909
909
905
904
898
898
896
891
896
907
917
910
899
890
889
891
891
889
890
896
900
900
902
897
895
897
899
900
905
905
903
909
909
902
895
899
903
905
908
911
910
914
909
912
911
914
919
924
927
929
930
932
933
934
933
933
936
941
944
945
945
944
941
940
944
947
946
945
946
946
947
943
939
939
944
952
951
946
942
940
940
943
945
942
942
945
945
946
945
944
943
945
944
943
948
955
957
949
939
933
929
927
926
927
932
937
937
936
931
925
921
929
931
933
929
919
915
918
921
925
936
942
944
939
932
923
918
920
923
935
944
950
945
940
947
955
949
929
913
907
912
918
923
923
921
918
919
926
930
934
932
930
923
919
921
921
923
922
925
926
926
927
924
919
923
936
948
951
944
929
918
915
919
923
929
935
948
945
933
918
911
915
915
915
915
919
928
928
925
921
918
923
930
932
937
939
935
933
935
935
940
944
943
941
942
940
949
989
1044
1122
1181
1149
1056
992
971
974
978
980
980
984
982
978
969
955
945
955
975
996
1005
1005
1000
989
972
953
941
940
948
958
962
945
916
878
857
842
834
839
859
879
886
874
850
830
820
813
804
799
811
832
853
864
862
861
868
871
864
854
864
900
938
954
944
929
917
912
909
904
893
897
909
932
945
948
945
939
933
923
916
919
940
973
997
996
974
941
924
925
927
926
920
915
923
942
960
969
973
974
965
960
950
935
934
956
985
1004
995
975
955
946
944
937
928
925
940
967
985
983
973
966
959
947
940
941
961
994
1021
1019
995
970
946
936
926
924
947
980
1006
1004
983
957
942
940
948
964
978
976
966
954
950
944
940
946
953
957
962
975
988
999
992
969
942
927
923
940
963
981
989
986
972
955
946
937
930
929
929
931
933
936
932
936
950
965
973
960
937
917
916
937
960
964
944
917
912
924
935
930
936
957
981
982
963
934
909
905
922
938
945
944
944
950
950
938
928
921
928
939
943
943
945
962
979
978
947
915
908
928
950
960
956
951
948
949
944
947
947
960
962
953
933
909
904
920
950
971
981
979
964
935
920
913
923
938
945
948
944
940
943
947
946
941
935
946
974
1004
999
958
919
908
916
927
933
935
933
934
941
960
979
978
956
929
917
917
917
920
927
936
938
935
935
933
928
926
926
932
935
941
954
969
981
973
958
952
965
974
956
927
912
925
945
974
1033
1136
1185
1129
1046
1010
1014
1020
1018
1006
995
991
992
997
996
998
996
996
994
994
991
985
974
963
964
966
962
951
943
930
921
913
905
897
889
874
864
866
878
886
891
893
896
899
901
904
915
924
921
903
888
886
897
912
926
938
944
950
958
967
971
977
975
975
977
982
988
994
991
983
978
979
979
979
970
968
983
1012
1029
1026
1010
1007
1007
1005
1009
1018
1025
1031
1033
1027
1015
1005
1004
1005
1004
999
998
1011
1035
1065
1077
1065
1035
1017
1024
1043
1051
1038
1022
1010
1010
1011
1010
1015
1027
1037
1042
1028
1019
1016
1028
1048
1059
1057
1051
1046
1048
1048
1049
1053
1055
1055
1058
1062
1067
1072
1069
1065
1054
1058
1062
1058
1049
1045
1037
1033
1033
1036
1040
1046
1055
1067
1070
1067
1063
1064
1063
1063
1060
1058
1058
1069
1079
1081
1071
1053
1037
1027
1031
1038
1038
1033
1031
1036
1050
1062
1068
1064
1055
1045
1037
1034
1034
1037
1039
1039
1040
1043
1046
1048
1045
1040
1039
1040
1035
1034
1040
1055
1070
1065
1055
1044
1034
1033
1032
1033
1036
1038
1039
1036
1036
1037
1041
1040
1037
1035
1032
1034
1035
1036
1037
1037
1040
1044
1046
1047
1041
1038
1040
1043
1040
1038
1034
1036
1038
1041
1039
1038
1036
1035
1034
1036
1040
1041
1042
1044
1042
1040
1038
1037
1036
1036
1037
1040
1043
1043
1043
1043
1042
1043
1040
1038
1037
1038
1040
1047
1049
1049
1043
1039
1039
1042
1045
1048
1049
1051
1048
1046
1051
1052
1048
1047
1047
1047
1048
1049
1051
1049
1045
1047
1050
1047
1050
1050
1048
1049
1052
1056
1060
1065
1079
1123
1215
1268
1223
1146
1108
1111
1126
1129
1124
1113
1105
1104
1102
1107
1104
1102
1097
1096
1098
1099
1098
1092
1088
1081
1075
1066
1055
1043
1027
1019
1009
1000
986
973
961
958
955
951
946
943
941
944
947
947
950
951
954
958
969
982
996
1010
1023
1032
1039
1043
1051
1055
1057
1060
1062
1063
1064
1064
1065
1072
1076
1075
1074
1072
1074
1078
1083
1082
1083
1085
1086
1093
1096
1099
1099
1099
1104
1109
1112
1111
1112
1114
1112
1112
1110
1109
1107
1105
1105
1107
1106
1107
1108
1108
1106
1110
1109
1108
1111
1108
1110
1110
1114
1114
1117
1115
1114
1117
1120
1119
1118
1116
1115
1120
1121
1122
1120
1118
1119
1120
1122
1121
1120
1122
1123
1127
1128
1129
1129
1127
1126
1131
1131
1130
1131
1130
1127
1129
1130
1127
1128
1125
1125
1124
1127
1126
1125
1122
1118
1119
1119
1117
1115
1113
1110
1111
1112
1109
1108
1105
1102
1104
1104
1104
1104
1101
1099
1101
1099
1099
1094
1091
1091
1091
1096
1093
1091
1088
1089
1089
1089
1087
1086
1084
1083
1085
1087
1086
1084
1082
1080
1083
1085
1084
1082
1081
1080
1078
1080
1077
1077
1077
1076
1074
1075
1080
1078
1076
1075
1076
1077
1075
1074
1073
1072
1072
1074
1069
1069
1067
1065
1067
1068
1068
1067
1063
1064
1065
1065
1061
1063
1061
1058
1060
1066
1062
1061
1061
1059
1058
1061
1060
1059
1058
1055
1056
1057
1059
1055
1054
1054
1055
1055
1056
1055
1051
1053
1055
1057
1057
1053
1052
1056
1060
1060
1059
1056
1054
1054
1054
1057
1056
1057
1053
1054
1054
1056
1056
1054
1053
1053
1055
1061
1063
1071
1085
1118
1196
1260
1228
1151
1107
1101
1110
1107
1101
1094
1090
1089
1093
1095
1092
1090
1085
1081
1078
1075
1071
1066
1061
1050
1045
1042
1034
1024
1013
995
980
971
962
949
941
930
921
918
915
911
908
905
907
910
910
910
910
910
915
922
927
935
946
959
972
984
990
998
1007
1013
1019
1024
1027
1031
1035
1035
1041
1043
1047
1047
1048
1048
1051
1051
1051
1052
1049
1046
1050
1054
1056
1057
1057
1062
1063
1064
1065
1066
1067
1067
1067
1071
1071
1071
1072
1073
1075
1078
1076
1075
1075
1075
1078
1079
1078
1076
1076
1075
1075
1077
1073
1076
1079
1081
1080
1079
1077
1079
1079
1079
1080
1082
1085
1088
1087
1086
1086
1091
1090
1092
1090
1091
1093
1093
1091
1089
1089
1089
1094
1099
1099
1100
1099
1101
1103
1109
1108
1106
1107
1105
1104
1102
1099
1095
1093
1092
1093
1093
1089
1085
1084
1081
1084
1083
1080
1074
1071
1070
1068
1068
1066
1063
1063
1062
1063
1064
1062
1059
1058
1057
1058
1059
1057
1055
1052
1048
1046
1048
1049
1048
1046
1047
1046
1049
1047
1042
1043
1042
1044
1043
1040
1038
1039
1036
1039
1042
1042
1036
1033
1032
1037
1038
1035
1032
1033
1034
1036
1036
1031
1029
1028
1029
1028
1027
1023
1021
1022
1030
1031
1032
1031
1025
1025
1026
1028
1032
1030
1026
1024
1023
1023
1022
1017
1016
1016
1020
1025
1026
1023
1021
1014
1015
1016
1019
1019
1017
1017
1013
1014
1018
1015
1011
1006
1004
1008
1013
1015
1015
1011
1014
1015
1015
1012
1011
1006
1005
1008
1012
1013
1009
1010
1008
1012
1016
1015
1013
1014
1020
1028
1050
1107
1191
1200
1129
1068
1049
1059
1061
1056
1050
1048
1048
1049
1051
1047
1045
1047
1046
1042
1037
1035
1031
1026
1019
1011
1006
1000
992
977
960
939
923
911
897
886
876
869
862
858
855
851
851
850
847
851
854
859
867
872
875
881
889
903
913
920
928
935
946
956
966
970
973
980
984
989
990
989
990
992
995
996
999
1000
1001
1000
1000
1001
1004
1007
1010
1011
1011
1014
1018
1020
1022
1020
1022
1024
1030
1030
1029
1026
1027
1029
1034
1033
1034
1035
1034
1034
1034
1035
1034
1034
1032
1032
1033
1033
1034
1033
1033
1033
1035
1036
1035
1035
1031
1035
1036
1039
1040
1038
1037
1038
1040
1039
1038
1039
1039
1042
1044
1043
1040
1040
1038
1039
1046
1045
1044
1041
1042
1044
1048
1050
1050
1047
1049
1050
1050
1049
1050
1048
1047
1046
1047
1044
1044
1043
1040
1041
1042
1039
1036
1033
1031
1030
1031
1029
1027
1022
1023
1023
1023
1022
1019
1017
1015
1016
1018
1015
1011
1010
1009
1008
1012
1007
1005
1005
1003
1006
1006
1006
1005
1003
1003
1006
1007
1005
1004
1001
1002
1004
1007
1005
1002
1001
1002
1005
1007
1007
1008
1008
1005
1009
1011
1009
1006
1000
998
999
999
998
995
992
991
990
991
989
987
986
986
990
992
988
985
986
984
986
987
988
984
982
983
985
985
985
983
980
982
985
987
982
980
979
979
981
984
982
979
979
979
981
982
982
981
980
979
981
982
983
982
982
982
982
984
983
982
982
982
986
989
988
984
983
983
987
988
992
1001
1012
1055
1148
1216
1195
1141
1118
1131
1159
1185
1204
1225
1248
1270
1286
1282
1253
1210
1164
1125
1097
1068
1036
1004
979
965
959
962
959
954
953
957
957
960
962
964
961
960
962
962
962
960
959
960
958
959
957
955
955
954
955
955
953
951
948
947
948
947
943
943
943
943
943
944
944
941
937
938
938
938
936
933
930
931
930
931
932
930
925
925
926
928
926
924
920
920
923
923
920
918
915
914
918
920
920
917
917
916
916
919
917
916
915
914
916
919
919
917
917
918
921
924
925
924
922
923
925
930
933
935
934
936
939
942
944
945
943
946
951
954
956
957
958
958
960
966
967
964
961
966
971
976
975
973
970
970
974
975
976
974
969
971
972
975
974
973
972
971
972
974
974
972
969
970
972
972
971
969
966
968
970
974
973
968
968
966
969
968
969
966
965
966
967
970
969
967
967
966
970
971
971
968
968
969
971
970
972
970
968
969
969
974
969
969
966
968
970
970
972
972
966
968
967
971
969
971
968
968
969
972
970
967
967
969
971
974
972
969
967
966
969
968
970
966
965
967
967
967
966
965
962
962
963
964
965
965
964
966
969
970
971
969
968
972
974
976
974
973
973
975
976
979
978
977
973
970
972
970
969
968
969
969
969
969
969
967
967
968
971
973
972
974
979
998
1042
1124
1172
1128
1052
1016
1015
1024
1022
1012
1004
1004
1009
1012
1013
1010
1006
1005
1008
1006
1006
1000
998
995
992
987
979
973
964
955
941
930
920
916
916
915
910
905
902
899
894
896
906
917
930
945
952
963
964
957
950
942
933
926
921
918
917
920
924
930
938
943
945
942
944
948
955
964
968
973
972
973
972
974
975
975
972
975
976
980
980
977
973
975
978
980
980
978
976
977
980
981
982
980
979
978
981
982
984
980
977
976
978
983
981
980
976
978
986
992
998
999
996
994
997
1001
1002
999
995
998
1002
1003
1002
999
998
999
999
1002
1005
1005
1000
1002
1004
1004
1005
1003
1004
1004
1004
1007
1008
1007
1002
1002
1004
1005
1003
1000
997
997
1002
1003
1001
998
990
988
988
991
990
984
982
982
984
982
982
981
976
974
976
976
979
980
979
975
976
973
973
970
967
968
969
969
968
968
964
966
967
967
966
966
962
962
963
963
964
963
963
964
966
968
968
960
957
955
958
963
964
963
962
968
967
969
969
966
963
962
965
966
965
964
963
964
964
964
963
962
958
958
960
962
960
959
958
959
964
965
963
959
957
956
955
960
959
956
956
957
960
958
959
958
956
956
960
965
965
968
962
957
957
956
959
960
960
960
964
965
965
964
961
963
963
962
963
962
961
964
968
977
988
1024
1101
1159
1122
1047
1010
1008
1013
1012
1004
1004
1003
1002
1003
1000
999
994
997
994
988
986
990
988
983
976
967
961
954
944
927
906
884
869
862
854
842
832
823
827
826
824
819
816
816
826
838
847
850
844
841
848
864
880
892
900
907
915
921
928
937
942
948
950
954
956
957
958
958
963
971
975
976
974
971
966
962
962
965
966
969
973
980
989
993
995
992
991
990
989
988
982
979
985
995
999
1002
998
993
989
988
995
994
996
999
1003
1008
1009
1005
1003
1000
997
1001
1004
1005
1008
1010
1015
1013
1008
1000
997
999
1006
1012
1015
1013
1012
1012
1017
1018
1017
1013
1011
1005
1009
1011
1011
1007
1001
1004
1015
1020
1023
1022
1020
1017
1018
1017
1015
1013
1011
1007
1010
1013
1011
1007
1006
1003
1003
1004
1004
998
996
993
997
997
994
991
991
988
987
993
994
989
989
985
984
984
985
985
982
976
978
986
990
990
987
981
973
970
970
973
975
975
980
985
983
980
977
972
976
982
982
978
975
974
974
973
974
976
976
974
976
975
974
974
971
967
966
971
975
977
973
971
973
975
978
976
973
971
973
973
971
970
970
967
966
964
959
963
965
967
969
973
972
973
978
975
971
969
970
969
969
963
960
960
962
965
966
967
966
967
969
968
964
961
962
961
961
959
960
960
961
966
968
968
965
960
961
962
964
962
957
955
957
960
961
963
962
962
966
964
967
968
971
967
969
970
972
977
982
997
1060
1149
1159
1092
1032
1013
1024
1029
1028
1023
1017
1016
1014
1012
1015
1019
1020
1020
1021
1022
1022
1023
1022
1019
1020
1018
1013
1011
1004
998
991
985
975
957
939
922
911
902
892
874
860
852
847
847
844
841
835
825
823
826
828
831
831
831
837
844
855
866
872
878
883
892
904
914
918
925
930
937
943
950
949
947
950
957
964
964
968
966
963
967
966
970
972
972
979
986
987
988
989
983
982
984
988
989
991
988
986
986
988
989
988
990
992
992
994
997
992
990
991
992
997
998
997
995
991
996
997
997
994
993
996
1002
1002
1005
1003
1001
1004
1007
1007
1005
1003
1002
1002
1005
1008
1005
1006
1006
1007
1010
1010
1011
1010
1010
1013
1016
1018
1017
1016
1013
1015
1019
1021
1017
1017
1014
1019
1019
1021
1022
1019
1017
1015
1016
1019
1016
1015
1011
1013
1011
1011
1010
1007
1004
1002
1004
1003
1001
999
996
996
997
997
995
994
988
987
989
989
987
985
984
982
986
984
982
980
977
979
981
984
981
981
977
976
977
978
978
975
971
974
974
975
975
974
973
974
974
973
974
968
965
969
971
974
972
971
967
968
967
970
967
962
962
964
968
967
966
963
960
962
963
964
964
961
959
960
961
960
961
957
956
958
960
959
961
957
954
954
954
955
956
953
952
954
952
953
955
953
953
954
957
957
955
954
950
952
953
953
954
952
951
953
956
956
954
952
949
949
951
953
951
951
950
953
955
957
956
955
953
956
961
966
978
996
1046
1135
1175
1124
1048
1008
1005
1010
1010
1005
1000
1000
997
995
999
1000
998
996
992
993
992
993
993
985
979
975
973
969
959
951
940
929
916
900
885
876
866
858
847
838
833
827
823
822
821
822
819
815
815
819
823
826
831
833
837
851
861
870
877
881
887
898
910
921
925
925
928
932
935
937
937
938
940
944
946
949
947
948
947
949
954
956
959
959
961
965
968
972
973
976
973
976
980
984
985
983
983
986
986
992
990
986
984
981
984
987
984
982
980
980
981
983
980
978
978
979
983
988
985
985
983
986
986
988
989
987
988
989
991
991
993
991
989
990
993
996
995
995
996
997
999
999
998
999
999
999
1000
1007
1007
1003
1001
1002
1004
1006
1005
1003
1000
999
999
999
999
996
995
994
996
993
990
989
985
984
984
983
983
978
975
975
978
978
977
975
972
970
972
974
974
971
967
968
969
973
971
968
964
965
966
966
965
962
958
962
962
964
961
961
957
959
960
963
963
961
958
958
957
959
957
958
953
955
955
956
957
955
952
953
953
954
952
950
951
951
951
949
950
948
947
947
945
949
946
945
945
948
951
951
949
947
943
945
948
949
948
949
943
944
945
947
948
943
942
944
945
944
943
941
939
940
943
945
944
942
939
940
942
943
944
941
940
941
943
944
940
939
938
939
941
942
942
942
941
944
946
951
954
954
963
977
1018
1098
1161
1133
1055
1007
998
1001
1001
996
987
986
988
989
989
986
984
985
982
980
975
971
967
963
960
951
945
936
929
923
907
893
878
866
851
843
834
824
818
815
809
812
810
810
808
807
808
815
818
821
825
832
842
856
865
874
882
890
897
908
917
923
930
932
933
937
936
939
940
942
944
943
943
945
946
945
945
950
954
957
960
959
960
962
964
969
971
971
968
970
971
972
973
972
971
972
974
978
978
978
977
980
982
980
983
984
981
982
987
987
986
987
986
987
989
989
990
988
987
992
993
995
997
996
994
996
997
996
1000
1000
998
1001
1003
1005
1004
1003
1000
1003
1007
1009
1011
1008
1008
1008
1010
1011
1011
1009
1005
1006
1007
1009
1009
1004
1003
1000
1000
1001
1001
997
994
996
996
997
997
993
992
988
989
990
988
985
986
988
987
989
987
987
987
986
986
985
982
982
979
977
977
978
975
973
968
968
970
968
966
964
961
961
963
964
965
961
960
960
961
963
961
960
958
959
959
960
958
959
955
956
955
956
954
955
956
954
952
952
952
950
946
949
949
951
953
946
944
947
950
952
949
946
944
943
946
946
945
945
944
948
946
947
946
946
942
944
946
947
947
944
942
942
944
946
945
943
942
944
947
948
948
946
942
945
947
949
947
946
944
946
948
948
947
942
943
943
944
948
947
946
943
944
948
956
963
975
988
1003
1019
1032
1047
1056
1075
1138
1253
1324
1316
1288
1275
1264
1233
1183
1131
1087
1049
1014
980
952
936
925
923
924
928
930
931
928
928
930
931
932
930
929
923
925
925
925
926
927
924
922
924
924
926
923
919
921
922
921
920
918
914
912
915
913
912
912
912
913
914
917
914
910
906
907
909
910
910
906
904
903
902
903
902
900
898
899
899
897
892
892
891
893
895
895
896
893
892
898
901
899
897
895
894
894
895
898
896
897
895
900
904
905
904
906
907
910
914
915
914
917
922
925
930
931
930
931
932
934
935
936
939
939
939
944
947
948
947
947
947
947
952
954
954
951
950
952
953
953
954
952
949
954
954
956
951
954
951
948
951
951
950
947
945
946
946
948
950
947
947
950
950
948
947
946
947
943
944
942
943
943
941
944
947
947
945
941
939
939
939
941
944
945
944
943
944
946
946
946
944
942
943
944
943
941
939
945
947
946
943
942
943
945
946
946
945
944
946
950
952
952
949
948
948
950
953
956
956
955
956
958
960
962
961
962
961
962
968
967
969
966
966
968
971
970
968
966
961
964
962
963
960
958
958
957
960
963
957
952
947
950
956
954
953
950
951
952
956
959
962
958
954
955
954
955
955
954
952
953
957
961
960
957
957
960
961
960
962
959
959
960
963
966
966
963
964
971
985
1003
1032
1085
1179
1240
1206
1147
1130
1153
1187
1218
1246
1268
1275
1261
1222
1176
1135
1102
1064
1025
980
952
942
941
939
933
932
934
937
940
942
944
945
947
946
944
944
943
943
942
946
942
939
936
938
938
940
938
936
935
932
931
932
933
934
931
928
932
932
930
928
928
927
926
928
928
927
924
922
926
927
926
924
925
921
922
924
924
925
923
920
922
923
923
920
919
915
920
923
923
921
921
922
923
925
925
925
924
924
927
925
926
924
927
928
930
933
932
934
934
936
940
941
940
942
944
946
946
950
952
951
949
951
955
960
960
962
960
961
964
965
968
969
967
968
970
973
976
973
971
973
974
978
977
973
971
969
969
970
971
971
967
966
967
966
967
968
967
965
965
965
967
968
965
968
966
968
964
962
961
962
961
961
963
961
959
960
962
962
961
959
960
962
963
965
963
962
960
957
959
961
964
964
963
965
966
965
964
963
962
964
964
963
963
963
961
964
968
968
968
963
961
957
959
963
966
968
965
960
964
967
965
966
965
967
966
966
964
962
962
961
963
965
965
966
964
963
966
966
963
961
957
958
963
965
963
961
956
954
958
958
959
957
955
955
955
957
960
957
957
959
959
961
964
967
970
968
968
968
970
970
972
972
977
980
977
979
978
973
972
971
971
972
974
974
977
985
1005
1066
1155
1172
1099
1028
1010
1015
1021
1015
1010
1007
1006
1008
1008
1007
1007
1009
1007
1005
1000
998
995
989
981
974
967
958
945
928
916
904
893
880
871
863
861
852
843
839
846
852
859
864
867
867
870
878
887
898
913
923
933
941
952
958
961
958
956
953
951
948
945
941
944
948
949
953
954
957
960
966
967
967
965
966
968
973
976
975
974
974
976
979
979
978
977
976
979
983
981
985
983
983
984
985
986
986
985
983
988
988
988
987
985
985
989
990
989
989
989
989
992
991
993
992
993
993
994
998
999
999
995
993
996
997
996
996
995
996
998
999
1000
999
999
997
998
998
1000
998
999
997
997
999
995
998
997
997
997
997
996
993
987
988
987
989
988
983
982
979
980
980
983
980
975
972
973
974
974
972
971
969
966
969
969
968
968
965
969
971
969
967
966
968
966
968
969
968
967
963
965
968
964
965
963
964
964
965
966
963
964
961
966
966
967
965
964
963
963
967
967
969
965
961
961
962
963
963
962
962
961
961
960
961
959
957
958
960
959
959
956
954
955
957
955
957
952
952
957
956
955
954
952
952
954
953
953
950
950
949
951
954
954
956
951
947
947
950
950
949
949
948
951
952
955
954
952
947
950
952
955
954
953
951
953
954
955
957
961
971
993
1051
1141
1172
1104
1027
1001
1006
1011
1006
996
992
995
1002
1003
999
995
994
996
998
993
989
987
985
978
974
972
965
953
936
920
900
884
873
860
850
846
844
841
834
830
829
832
834
837
841
847
851
862
873
886
893
898
906
918
932
940
942
944
947
951
953
952
953
953
954
955
959
959
956
956
956
960
962
962
965
967
969
973
976
978
978
980
980
983
987
986
985
985
985
986
988
992
994
992
992
993
995
994
996
994
995
997
999
1000
1000
999
1000
1002
1003
1002
1003
1002
1004
1005
1008
1008
1004
1005
1002
1005
1007
1009
1006
1007
1007
1007
1010
1008
1006
1009
1006
1011
1012
1013
1012
1012
1011
1015
1018
1015
1016
1010
1005
1008
1010
1009
1009
1006
1003
1002
1004
1005
1002
1002
1003
1002
1002
997
989
987
984
984
986
987
985
986
982
984
986
986
981
979
977
978
982
983
981
980
977
978
979
980
983
982
979
980
979
977
976
973
971
974
976
976
976
973
974
975
978
979
977
973
972
970
972
974
973
970
971
972
975
973
974
974
977
976
977
974
970
970
968
969
973
972
971
971
972
972
971
969
961
962
962
966
966
967
967
965
965
967
969
967
966
966
960
964
965
965
962
963
961
962
964
963
964
962
963
962
964
967
966
964
964
965
968
967
966
964
963
966
969
971
971
969
968
967
969
969
968
967
966
970
975
978
980
982
987
1008
1053
1133
1188
1151
1076
1026
1021
1027
1027
1019
1014
1012
1016
1014
1013
1009
1004
1001
1003
1001
999
993
989
988
984
975
964
958
949
944
941
929
911
893
879
870
863
850
837
827
828
828
832
835
833
830
832
836
841
845
848
853
854
864
876
889
900
907
911
922
935
950
955
958
962
967
972
976
977
978
982
987
990
992
991
990
989
992
990
988
986
988
989
993
994
994
995
996
995
1002
1007
1006
1003
1004
1005
1007
1008
1012
1011
1008
1005
1010
1014
1014
1013
1009
1005
1009
1012
1013
1012
1010
1010
1014
1019
1019
1020
1017
1018
1020
1020
1021
1024
1021
1020
1023
1024
1026
1024
1024
1022
1027
1029
1029
1029
1027
1029
1030
1034
1036
1035
1033
1032
1035
1036
1037
1035
1036
1034
1038
1041
1042
1043
1040
1042
1042
1043
1044
1042
1040
1040
1042
1041
1042
1040
1040
1036
1039
1039
1037
1035
1034
1030
1031
1029
1027
1026
1024
1023
1023
1025
1023
1020
1014
1009
1009
1015
1014
1012
1008
1006
1008
1008
1007
1003
1003
1002
1003
1003
1001
1000
998
994
996
995
997
995
996
993
994
994
991
990
990
990
992
995
996
993
992
990
991
990
987
990
987
986
987
995
993
990
989
987
987
988
986
985
982
982
984
987
985
987
984
980
982
983
984
982
978
979
979
981
981
980
977
978
978
981
979
977
978
976
978
980
980
979
977
976
975
978
975
975
977
975
978
978
978
976
973
973
974
975
975
972
973
972
973
977
974
973
973
971
971
973
974
976
974
974
973
974
975
976
975
976
980
984
988
995
1006
1050
1141
1199
1156
1072
1030
1023
1033
1034
1028
1024
1019
1016
1019
1019
1017
1015
1012
1012
1010
1012
1008
1005
1001
994
989
983
975
967
955
941
925
910
898
885
871
859
850
848
846
843
838
832
832
836
835
837
841
843
852
856
859
868
879
889
900
909
915
923
932
938
947
953
957
963
965
964
965
967
972
975
973
975
976
978
979
978
974
976
983
986
987
988
987
989
993
999
1002
1005
1004
1004
1007
1008
1008
1007
1006
1006
1008
1010
1011
1011
1007
1006
1010
1012
1013
1014
1010
1014
1015
1017
1020
1019
1022
1022
1024
1027
1028
1027
1028
1027
1030
1033
1037
1037
1036
1039
1041
1044
1043
1042
1039
1036
1036
1037
1036
1037
1037
1037
1038
1039
1035
1033
1032
1031
1035
1038
1039
1038
1037
1035
1037
1038
1041
1039
1036
1037
1038
1042
1041
1038
1036
1034
1034
1034
1033
1032
1029
1029
1028
1028
1027
1023
1022
1020
1023
1021
1020
1018
1014
1010
1013
1013
1010
1008
1006
1006
1006
1009
1008
1007
1005
1001
1003
1005
1003
1003
998
996
999
1002
1000
993
996
996
999
999
996
997
995
994
995
997
995
992
992
992
993
994
996
993
992
988
987
988
988
988
986
982
982
983
985
985
980
979
981
983
982
982
980
980
983
981
981
978
978
976
976
978
978
976
975
972
973
976
978
974
973
972
973
973
975
973
971
968
973
976
975
973
973
972
973
973
972
972
970
968
971
970
973
971
970
970
971
972
973
970
969
970
972
974
975
974
975
976
978
981
984
988
1000
1037
1123
1190
1149
1067
1023
1018
1028
1027
1025
1017
1014
1016
1016
1015
1013
1006
1002
998
998
995
991
983
973
967
960
952
938
918
898
885
877
871
859
850
842
838
839
836
835
836
833
836
840
844
848
851
855
866
876
890
899
906
911
918
931
942
948
950
955
956
960
963
963
964
965
967
969
971
972
967
967
968
973
977
978
978
978
981
985
987
988
988
992
991
994
997
997
996
994
994
995
998
1001
999
999
995
1002
1005
1002
1003
1001
1002
1003
1006
1007
1010
1008
1008
1009
1015
1014
1013
1011
1012
1015
1018
1014
1017
1012
1013
1015
1018
1019
1019
1019
1016
1021
1023
1022
1024
1021
1022
1021
1024
1026
1026
1026
1026
1028
1031
1029
1029
1026
1028
1029
1034
1031
1032
1031
1026
1030
1034
1035
1032
1032
1031
1031
1033
1032
1030
1027
1025
1024
1026
1024
1025
1026
1021
1023
1022
1022
1016
1011
1007
1006
1006
1004
1000
999
996
996
995
994
996
992
991
992
992
992
990
987
988
989
990
990
986
984
984
986
990
990
987
986
983
982
984
984
982
978
980
980
981
982
980
977
978
979
980
981
979
978
977
977
978
979
977
973
973
974
977
976
975
976
972
974
974
976
974
972
970
969
972
970
969
967
968
970
972
972
970
970
970
970
973
973
972
970
969
969
972
972
969
967
965
966
967
967
967
966
965
968
968
969
968
963
965
969
969
969
968
967
967
967
972
973
970
971
972
975
979
983
988
1001
1042
1123
1198
1180
1097
1037
1019
1022
1027
1022
1014
1011
1009
1011
1013
1010
1005
1001
998
997
996
996
989
984
978
973
968
962
955
947
935
922
908
895
885
874
863
855
849
845
839
837
834
836
833
836
839
839
841
845
849
856
858
868
879
892
903
908
916
925
934
943
952
957
961
963
965
968
970
971
971
972
970
974
976
977
975
975
977
978
980
985
986
987
989
991
994
997
1000
1000
999
999
1002
1003
1002
1006
1007
1010
1011
1011
1010
1008
1007
1010
1014
1016
1015
1017
1016
1017
1018
1018
1022
1018
1019
1022
1025
1028
1029
1025
1024
1026
1030
1031
1032
1030
1028
1034
1036
1039
1038
1038
1036
1039
1040
1042
1043
1041
1041
1043
1045
1048
1048
1049
1047
1051
1053
1050
1050
1044
1043
1045
1047
1045
1043
1041
1040
1039
1041
1038
1035
1029
1029
1029
1029
1028
1025
1021
1020
1018
1018
1017
1015
1013
1011
1012
1012
1012
1012
1010
1008
1009
1010
1010
1007
1004
1004
1005
1003
1002
1000
997
996
998
1002
1002
1000
999
998
999
999
996
998
999
1000
1001
1002
1004
1002
999
998
1001
1006
1007
1004
1007
1008
1010
1013
1011
1008
1005
1004
1004
1005
1004
998
995
995
997
997
996
992
989
988
990
990
990
987
986
986
986
988
987
984
983
979
980
984
987
986
982
981
981
984
983
983
982
982
987
987
987
985
983
984
985
986
984
981
982
983
987
990
989
987
986
982
986
989
988
988
991
991
993
997
1003
1004
1009
1021
1059
1140
1196
1160
1092
1058
1068
1084
1095
1098
1107
1118
1131
1151
1175
1201
1228
1254
1273
1280
1274
1250
1218
1175
1141
1113
1087
1058
1029
1005
987
981
974
968
965
968
970
973
970
967
966
968
970
975
977
977
976
971
973
973
969
967
961
962
964
966
965
964
967
968
970
972
968
965
960
960
957
958
953
954
952
953
956
957
958
959
961
960
962
959
958
954
951
948
948
947
949
951
953
954
951
949
945
941
945
949
952
955
954
952
953
950
953
956
957
959
960
959
959
959
958
958
954
953
955
959
958
960
960
961
965
968
972
973
973
972
971
975
983
986
984
985
986
988
988
989
988
991
998
1004
1006
1005
1006
1004
1007
1008
1006
1003
1005
1006
1012
1015
1009
1006
1003
1003
1004
1009
1009
1009
1005
1003
1006
1009
1008
1008
1008
1004
1008
1008
1005
1004
1004
1003
1006
1006
1002
1003
1000
999
1000
1000
1002
1003
1000
1001
1004
1004
1005
1000
1001
1001
1002
1004
1001
1000
998
999
998
1001
999
998
998
996
999
1001
1003
1004
1006
1004
1009
1007
1005
1003
1002
1001
1001
1005
1002
1003
999
998
1003
1005
1005
1002
1000
998
1001
1006
1005
1006
1002
1003
1003
1005
1005
1003
1000
1001
1002
1006
1007
1002
996
993
996
1005
1013
1014
1018
1012
1011
1016
1016
1015
1012
1011
1013
1013
1013
1011
1013
1013
1016
1016
1013
1008
1004
1002
1003
1005
1003
1003
1000
998
1001
1001
999
998
996
999
1001
1003
1000
1001
999
1000
1005
1008
1012
1021
1045
1114
1199
1212
1139
1065
1041
1045
1054
1055
1050
1043
1037
1033
1037
1044
1046
1045
1041
1038
1040
1042
1039
1037
1031
1020
1013
1011
1009
1008
1011
1005
1003
998
991
985
982
985
992
1003
1014
1023
1022
1012
1002
997
984
975
964
952
944
945
947
951
956
961
967
970
973
975
979
980
984
985
987
985
984
985
984
989
990
993
994
990
993
994
992
991
989
988
996
998
993
994
992
993
996
997
993
994
996
997
998
1002
1001
1000
992
988
989
995
995
995
997
1000
998
999
997
998
997
996
999
1002
1000
1001
998
996
997
1000
1000
1001
1001
1002
1007
1008
1006
1003
1005
1005
1007
1008
1008
1007
1008
1010
1010
1011
1008
1011
1010
1010
1007
1004
1007
1010
1010
1011
1009
1013
1012
1009
1002
999
1000
1006
1004
1002
998
996
998
998
997
992
991
989
991
989
990
988
990
992
994
992
988
988
988
986
986
985
984
981
979
977
981
986
984
975
968
968
972
983
986
988
989
986
986
984
981
980
980
984
983
983
978
972
971
971
976
979
977
977
975
977
978
982
981
980
974
979
981
982
983
982
975
975
976
979
975
972
972
975
975
974
974
971
970
967
970
974
971
970
970
972
975
976
974
974
978
977
975
971
975
981
981
979
978
981
977
976
972
972
969
968
971
972
966
965
967
968
967
967
967
968
971
971
972
972
973
978
989
1005
1049
1137
1180
1129
1055
1027
1030
1036
1032
1027
1024
1025
1025
1026
1025
1018
1009
1001
992
990
990
992
991
986
973
959
949
941
935
927
917
900
879
861
850
849
850
847
843
841
845
847
849
851
853
859
866
880
889
899
907
916
924
933
944
948
953
955
960
965
966
962
963
968
972
972
973
971
969
970
973
977
977
976
977
981
987
993
992
992
989
988
991
1000
1000
1002
1000
1000
1004
1010
1007
1006
1002
1002
1006
1009
1008
1006
1006
1005
1009
1011
1010
1007
1006
1010
1014
1015
1014
1015
1015
1016
1016
1019
1019
1019
1018
1020
1021
1022
1019
1016
1017
1021
1024
1026
1027
1028
1025
1025
1027
1028
1029
1027
1025
1025
1024
1027
1026
1025
1024
1020
1018
1018
1014
1012
1010
1009
1008
1008
1005
1000
999
1000
1003
1003
1000
998
996
998
998
998
997
996
993
991
991
991
992
990
988
989
991
992
989
987
985
987
988
989
988
987
985
985
987
987
985
985
981
981
982
982
980
979
977
979
981
986
987
986
982
981
981
981
984
979
978
983
982
983
979
979
978
978
975
977
978
978
975
973
975
979
976
976
975
974
974
974
973
971
968
970
973
974
972
972
970
969
972
971
972
971
969
968
970
972
972
969
968
971
970
974
971
973
966
968
971
971
970
969
971
970
972
975
973
973
972
970
973
974
975
974
973
975
979
983
989
1003
1034
1115
1189
1170
1087
1033
1023
1032
1031
1025
1018
1015
1013
1015
1018
1018
1013
1010
1004
1003
1000
1000
995
989
979
973
970
967
962
952
937
920
905
899
890
881
867
861
857
856
850
849
845
850
854
858
862
863
868
875
883
889
901
912
920
929
937
944
949
955
958
967
973
979
981
977
975
977
981
984
983
985
985
983
983
987
991
992
987
986
990
995
998
999
999
1001
1003
1006
1011
1015
1017
1016
1019
1016
1014
1010
1011
1011
1015
1016
1017
1016
1014
1015
1016
1018
1022
1021
1022
1023
1025
1028
1028
1026
1022
1020
1020
1022
1023
1023
1025
1025
1029
1036
1038
1037
1036
1031
1034
1035
1035
1030
1030
1032
1038
1041
1039
1039
1035
1037
1042
1046
1044
1040
1035
1041
1038
1042
1043
1038
1041
1040
1044
1047
1044
1040
1037
1036
1038
1042
1044
1044
1041
1038
1038
1036
1038
1035
1030
1030
1030
1029
1028
1024
1022
1018
1017
1018
1017
1017
1013
1014
1013
1012
1012
1009
1010
1010
1012
1010
1008
1005
1000
1001
1001
1000
1001
999
996
998
998
999
998
996
994
994
994
996
996
995
995
996
996
996
994
992
989
989
990
994
992
989
988
987
990
994
991
991
985
986
987
986
988
989
987
985
985
982
981
979
976
979
982
984
984
980
978
981
985
987
989
986
982
982
983
982
979
978
978
978
979
979
977
975
974
976
980
980
977
975
976
978
982
978
978
982
981
985
986
984
985
982
976
977
975
979
978
975
972
974
978
978
983
981
979
975
980
983
983
982
981
980
983
984
982
980
983
985
993
1000
1008
1030
1082
1168
1205
1151
1071
1030
1025
1031
1031
1028
1022
1018
1014
1015
1016
1020
1019
1017
1013
1009
1008
1002
999
994
989
983
978
973
962
950
932
917
903
885
869
855
852
842
833
827
826
823
820
819
821
823
827
830
835
840
847
852
859
868
876
890
902
911
923
929
935
946
953
957
962
971
971
973
975
978
980
981
981
982
986
990
989
986
985
987
997
1000
1005
1008
1008
1011
1016
1017
1024
1025
1028
1030
1032
1029
1033
1032
1033
1032
1030
1030
1027
1029
1029
1030
1030
1029
1028
1028
1027
1030
1030
1035
1034
1031
1026
1028
1029
1032
1034
1036
1035
1035
1036
1037
1039
1038
1038
1038
1041
1043
1042
1040
1039
1042
1047
1048
1049
1047
1047
1048
1051
1055
1054
1052
1048
1049
1052
1053
1054
1056
1051
1050
1052
1053
1052
1050
1049
1047
1044
1045
1043
1040
1038
1038
1042
1041
1041
1034
1029
1029
1026
1031
1031
1027
1022
1022
1022
1019
1017
1016
1014
1017
1017
1018
1016
1011
1009
1007
1009
1009
1009
1006
1003
1004
1003
1006
1004
1001
1000
1000
1000
1001
999
998
996
995
999
999
1001
998
996
998
998
998
994
989
986
989
992
995
993
990
989
990
992
989
988
985
979
978
975
979
981
980
976
977
981
984
984
978
974
976
980
985
987
987
986
983
982
983
982
976
974
974
976
980
978
980
979
977
977
975
976
973
973
971
974
975
977
975
973
971
973
974
975
977
977
976
976
978
978
977
975
973
976
978
976
974
973
972
974
977
977
976
975
979
980
980
980
981
982
989
1003
1053
1142
1170
1110
1041
1014
1018
1022
1024
1021
1018
1022
1024
1023
1020
1013
1010
1010
1010
1009
1005
998
993
987
984
977
968
961
950
935
919
905
895
884
872
860
851
843
842
838
833
836
835
835
836
836
842
848
852
856
861
871
882
895
904
917
927
935
944
950
956
960
965
963
965
970
974
974
979
981
981
981
981
980
983
981
985
986
995
995
997
993
998
1000
1003
1002
1001
998
997
995
999
1001
1003
1004
1006
1007
1009
1009
1007
1007
1009
1009
1012
1012
1010
1010
1010
1015
1015
1015
1012
1012
1009
1011
1012
1012
1012
1009
1011
1013
1013
1018
1021
1022
1027
1031
1031
1031
1027
1027
1028
1028
1029
1034
1033
1033
1037
1044
1049
1049
1048
1048
1053
1052
1051
1048
1042
1039
1036
1034
1031
1030
1026
1025
1022
1020
1016
1013
1009
1005
1005
1007
1011
1013
1009
1004
1000
998
1001
996
990
987
984
989
990
995
997
995
995
995
993
993
989
990
990
989
991
987
985
985
984
985
983
983
983
981
981
984
984
981
979
975
976
976
975
975
972
970
969
972
974
976
974
973
974
974
977
978
975
973
972
973
976
976
971
968
968
971
971
967
965
964
963
962
963
961
961
961
965
968
969
969
964
961
961
963
964
962
958
956
956
960
963
963
962
960
960
959
956
954
949
948
951
958
963
961
959
957
958
962
962
960
956
954
954
955
958
959
956
954
953
954
955
954
952
956
959
964
966
970
976
991
1037
1124
1180
1135
1054
1007
1002
1012
1009
1005
1000
994
995
996
997
993
988
982
982
982
981
978
969
962
956
950
943
931
915
898
882
868
856
842
829
819
819
820
821
819
817
815
814
816
820
822
820
821
831
845
857
867
878
885
896
907
919
927
933
935
939
940
942
940
943
941
946
947
949
949
947
946
944
947
952
952
955
958
963
965
966
963
963
965
970
975
976
978
976
978
977
982
987
989
987
985
985
989
987
987
985
984
985
985
986
989
987
986
986
989
990
992
988
985
985
986
989
995
995
995
1000
1003
1004
1006
1004
1000
1002
1003
1007
1004
1003
1002
1002
1007
1010
1007
1008
1006
1010
1011
1012
1012
1011
1009
1010
1011
1009
1011
1010
1009
1013
1017
1021
1021
1020
1013
1012
1008
1010
1009
1007
1005
1002
1002
1001
996
994
989
991
992
989
986
985
982
981
982
986
985
984
984
983
984
981
980
981
978
976
979
979
977
976
977
980
981
983
983
982
980
979
980
983
982
978
977
975
974
973
969
966
963
962
962
964
962
961
958
958
960
963
964
961
955
958
958
958
958
958
954
953
954
954
954
955
954
955
956
953
952
949
947
948
948
949
943
941
940
941
941
941
937
936
934
938
941
944
941
942
942
948
952
950
949
946
944
944
945
944
946
944
942
942
944
946
946
945
942
940
946
949
948
947
944
954
964
980
998
1013
1025
1040
1062
1095
1129
1157
1183
1248
1327
1339
1281
1208
1149
1107
1068
1031
990
953
934
926
925
924
924
925
924
923
925
927
928
924
921
922
924
923
926
923
920
920
920
923
921
919
915
912
911
913
916
920
918
920
920
918
915
912
909
910
912
911
909
906
905
907
906
908
906
904
899
900
900
902
901
897
896
895
896
898
897
895
892
894
893
894
891
894
894
895
894
896
894
893
890
890
891
894
893
892
895
897
899
900
898
899
897
902
904
906
908
911
909
917
921
924
924
918
911
913
916
923
926
928
928
930
933
935
939
945
947
951
950
952
952
949
948
951
955
957
958
958
955
956
958
959
956
955
953
953
957
958
958
955
952
951
953
958
960
952
951
951
949
952
953
950
949
952
953
958
955
956
953
953
953
955
956
954
954
953
957
958
955
955
948
950
952
952
950
947
945
946
950
952
950
948
947
950
952
952
953
953
949
948
949
952
952
953
953
952
953
952
952
953
951
953
956
959
957
953
949
951
952
954
952
952
949
947
951
953
956
956
954
956
960
959
961
963
964
963
965
968
968
969
969
971
966
970
972
973
969
969
969
969
967
967
962
961
962
961
965
962
962
964
964
963
966
964
961
961
965
966
965
962
958
956
957
956
957
958
960
961
967
969
971
972
971
973
974
975
972
974
973
976
982
991
1008
1054
1146
1195
1150
1081
1056
1065
1082
1094
1105
1116
1133
1154
1179
1213
1242
1262
1263
1243
1209
1167
1129
1095
1057
1021
990
967
954
950
947
945
942
946
947
953
951
950
950
954
961
960
958
954
954
952
954
954
952
950
949
951
952
953
951
945
941
938
940
942
945
945
947
948
946
945
939
934
932
937
941
946
947
948
945
943
943
943
942
938
932
932
933
933
932
932
930
933
937
939
940
937
935
937
940
935
932
928
927
931
939
943
943
938
934
934
940
943
945
944
946
947
947
948
951
950
947
949
950
953
953
953
951
954
959
962
960
962
962
966
967
971
968
965
964
968
975
981
983
986
985
986
985
983
985
984
984
984
980
979
979
982
987
994
997
995
987
982
979
982
982
979
978
979
979
978
979
981
987
986
981
979
983
986
985
981
980
981
980
981
982
983
982
986
989
987
983
977
973
976
982
981
980
982
978
976
973
972
974
975
976
981
982
982
984
983
983
980
977
975
972
974
975
976
978
983
981
977
979
981
987
989
988
984
980
979
981
985
986
990
988
986
987
986
983
980
982
982
989
987
983
982
982
984
985
983
982
976
976
980
985
989
988
986
987
986
983
978
977
978
981
984
988
990
989
987
984
984
986
988
989
992
994
999
1005
1009
1009
1010
1006
1002
995
996
995
1000
1001
1006
1024
1087
1178
1186
1113
1047
1028
1039
1047
1047
1041
1039
1039
1041
1043
1039
1034
1039
1044
1048
1048
1046
1046
1047
1040
1032
1024
1018
1008
997
982
962
942
930
914
901
888
879
873
870
869
872
877
876
875
875
882
889
891
897
903
917
935
946
956
961
965
966
969
972
973
972
972
968
966
961
962
965
969
969
968
972
976
978
979
983
983
984
988
994
996
995
994
994
998
999
1002
998
996
999
1002
1005
1006
1008
1008
1010
1014
1010
1009
1008
1008
1009
1010
1009
1013
1011
1012
1014
1016
1016
1017
1019
1018
1020
1021
1027
1026
1027
1026
1028
1027
1029
1025
1021
1019
1024
1027
1029
1030
1026
1025
1026
1027
1027
1026
1026
1028
1034
1039
1042
1044
1040
1035
1036
1038
1039
1035
1032
1029
1029
1032
1031
1029
1025
1020
1019
1018
1018
1014
1013
1009
1008
1008
1006
1007
1005
1002
1002
1002
1001
997
992
990
996
996
996
997
992
989
991
992
994
992
990
986
984
992
990
990
989
985
986
985
987
989
987
983
982
984
987
986
985
984
986
987
987
985
986
983
985
990
993
992
991
987
985
988
990
986
985
984
986
989
986
985
984
981
983
986
983
983
981
979
981
985
981
982
978
974
974
975
976
976
978
980
983
986
986
984
983
980
980
979
978
980
982
978
977
979
980
978
979
973
975
978
978
978
979
979
980
981
980
979
978
979
981
983
988
991
1001
1029
1101
1188
1185
1105
1041
1026
1033
1038
1031
1023
1018
1017
1018
1019
1018
1016
1014
1010
1009
1010
1011
1003
997
988
984
978
971
962
946
925
909
899
890
878
869
859
856
858
855
849
844
842
841
844
847
849
849
850
861
876
889
900
908
914
927
934
943
948
950
954
957
960
959
962
963
968
969
971
971
970
968
967
969
975
977
980
984
985
988
990
993
994
994
994
997
997
1001
999
1001
998
1000
1001
1002
1003
1004
1003
1003
1005
1010
1009
1010
1010
1012
1011
1014
1012
1011
1009
1012
1015
1016
1014
1013
1014
1012
1015
1018
1017
1016
1014
1016
1019
1021
1021
1022
1021
1022
1023
1025
1022
1022
1018
1019
1022
1025
1026
1027
1026
1026
1027
1027
1026
1024
1024
1026
1027
1028
1028
1027
1025
1024
1024
1025
1023
1018
1015
1016
1015
1015
1014
1011
1010
1011
1011
1011
1009
1007
1004
1002
1000
1002
1003
999
997
998
999
999
998
995
993
994
994
997
994
990
987
991
993
993
993
992
989
992
992
992
991
990
988
988
988
990
988
986
985
986
990
990
988
983
982
984
986
986
983
983
979
982
982
987
987
983
981
982
982
981
980
979
980
979
982
981
980
978
976
975
975
978
974
973
971
969
972
971
972
968
968
970
972
973
972
969
969
971
975
974
972
969
967
967
969
971
968
967
961
963
966
967
966
966
964
964
964
965
965
963
961
958
964
964
963
964
962
967
967
967
963
963
964
967
969
973
974
973
976
984
997
1033
1108
1182
1171
1090
1031
1016
1022
1024
1016
1012
1009
1007
1009
1005
1003
1002
1003
1001
1000
998
995
993
993
991
984
976
969
967
961
954
944
928
911
895
886
876
865
854
843
839
838
840
835
835
832
832
832
832
831
833
835
844
849
857
868
878
884
891
901
911
918
926
933
944
953
960
963
961
962
965
970
970
974
973
974
975
977
981
985
985
984
988
988
991
996
996
995
998
995
998
1000
999
999
1001
1003
1004
1002
1000
997
1000
1003
1002
1003
1004
1005
1005
1006
1006
1005
1006
1005
1008
1009
1011
1010
1012
1008
1010
1011
1013
1010
1012
1012
1014
1017
1018
1017
1016
1015
1017
1018
1020
1021
1022
1024
1025
1026
1028
1028
1027
1024
1029
1029
1030
1027
1027
1026
1031
1033
1035
1036
1034
1034
1039
1042
1043
1040
1037
1035
1034
1038
1037
1036
1033
1031
1033
1033
1035
1031
1027
1024
1024
1026
1024
1022
1019
1018
1018
1019
1017
1015
1011
1008
1007
1007
1007
1003
1002
1001
1001
1002
1000
1001
998
996
995
996
999
1000
998
994
994
994
995
996
993
991
991
993
993
992
987
987
988
991
991
989
987
983
985
984
987
987
986
984
985
987
989
988
987
984
986
987
985
985
983
979
983
986
984
982
981
979
979
982
979
979
979
976
979
978
979
976
976
975
981
982
983
983
980
979
983
983
984
983
978
976
976
978
977
978
977
974
977
978
980
979
978
976
979
980
978
978
977
975
979
981
980
979
976
975
978
979
981
982
982
982
983
987
988
986
988
990
996
1005
1030
1097
1179
1177
1105
1045
1030
1036
1037
1031
1024
1023
1022
1020
1019
1016
1018
1018
1016
1014
1008
1005
1002
1002
999
990
985
974
968
964
956
946
928
910
899
890
883
873
865
856
851
850
851
849
846
841
843
846
846
845
845
846
850
858
866
874
882
890
903
913
922
929
938
945
955
962
969
973
973
973
975
979
981
984
981
982
984
986
988
989
988
988
990
995
994
999
999
1000
1002
1005
1005
1004
1005
1005
1010
1013
1012
1011
1011
1009
1012
1013
1016
1014
1014
1014
1018
1021
1023
1025
1024
1023
1023
1027
1027
1029
1027
1030
1033
1038
1041
1042
1039
1041
1044
1044
1042
1039
1036
1034
1036
1038
1042
1042
1042
1040
1043
1043
1042
1043
1041
1037
1039
1044
1047
1045
1045
1044
1045
1050
1051
1051
1050
1048
1050
1052
1053
1049
1047
1046
1047
1048
1045
1046
1043
1040
1040
1043
1040
1038
1038
1032
1033
1031
1031
1027
1026
1024
1024
1024
1023
1023
1019
1017
1020
1018
1019
1019
1015
1015
1011
1012
1013
1011
1010
1007
1010
1009
1009
1008
1005
1002
1005
1007
1007
1004
1003
1000
1002
1003
1004
1002
998
999
998
998
997
995
994
993
995
999
1000
998
996
994
994
995
996
993
991
991
991
991
994
993
991
987
986
988
990
987
987
985
986
986
986
988
988
985
984
985
986
983
982
978
980
984
985
984
983
980
982
983
982
980
976
978
980
982
983
983
982
981
982
981
984
984
981
982
982
982
983
981
980
978
979
981
983
983
983
980
980
983
986
988
991
996
1018
1083
1165
1168
1105
1048
1029
1035
1034
1027
1020
1015
1018
1020
1020
1020
1020
1015
1013
1011
1009
1004
1002
995
993
986
977
967
958
949
940
928
914
900
882
867
857
849
841
834
831
828
825
827
828
830
831
833
839
846
852
857
864
871
880
892
904
913
923
932
947
956
966
968
972
974
975
976
977
981
983
985
992
994
995
995
996
992
992
994
992
995
997
1003
1010
1010
1012
1014
1010
1011
1015
1015
1018
1019
1018
1016
1017
1016
1015
1014
1017
1022
1027
1028
1027
1025
1021
1024
1027
1030
1027
1027
1028
1030
1032
1034
1035
1033
1034
1033
1037
1038
1037
1037
1039
1038
1040
1043
1044
1045
1045
1044
1045
1045
1043
1044
1045
1046
1049
1051
1053
1054
1055
1058
1061
1062
1063
1061
1061
1060
1064
1066
1062
1060
1058
1061
1061
1065
1061
1062
1057
1057
1056
1052
1042
1037
1033
1033
1033
1038
1032
1027
1024
1019
1019
1019
1021
1019
1017
1016
1015
1018
1018
1016
1017
1014
1013
1011
1009
1009
1005
1007
1008
1009
1008
1008
1005
1002
1001
1002
1001
998
996
996
1001
1002
1001
1001
1001
1000
1002
1003
1000
995
992
992
994
1000
998
997
997
997
996
999
998
1000
999
995
996
996
997
997
994
994
993
992
992
989
992
993
995
995
995
999
998
996
995
995
994
989
989
994
997
999
997
994
988
985
985
985
984
984
986
989
989
993
991
989
989
989
992
991
992
991
992
992
992
995
992
992
992
990
991
993
994
992
992
992
997
998
997
996
995
994
998
1002
1007
1017
1042
1117
1190
1178
1103
1044
1032
1035
1040
1038
1037
1035
1031
1030
1028
1027
1025
1022
1018
1013
1010
1005
1001
995
986
976
969
963
953
935
915
895
880
871
861
849
838
830
832
834
833
832
830
832
839
841
845
851
856
863
873
888
904
915
921
930
941
954
963
971
972
978
983
985
988
990
992
992
998
997
998
999
999
998
1001
1008
1011
1014
1016
1016
1018
1021
1023
1023
1023
1018
1022
1023
1024
1024
1024
1027
1028
1030
1031
1032
1030
1031
1031
1035
1037
1036
1035
1036
1037
1038
1039
1038
1037
1038
1039
1042
1041
1042
1037
1040
1041
1046
1046
1047
1047
1046
1048
1049
1050
1047
1046
1048
1050
1055
1056
1056
1053
1054
1056
1059
1058
1059
1059
1058
1060
1061
1060
1058
1054
1053
1051
1053
1054
1047
1048
1047
1048
1049
1044
1043
1038
1037
1036
1035
1034
1031
1029
1026
1027
1026
1028
1023
1021
1020
1024
1024
1023
1020
1018
1013
1013
1014
1014
1013
1012
1012
1014
1015
1014
1012
1008
1009
1008
1010
1006
1008
1005
1001
1003
1005
1004
1003
1001
999
1000
1003
1004
1003
999
999
1003
1004
1003
1004
1004
1005
1007
1008
1007
1006
1005
1006
1007
1011
1010
1008
1008
1007
1013
1015
1013
1008
1003
1001
1001
1002
999
1000
998
997
999
998
997
992
992
989
991
991
990
991
987
988
988
987
985
987
984
987
989
991
993
993
988
988
989
989
987
990
988
986
988
988
988
988
987
989
992
995
994
996
994
992
996
999
1000
997
995
993
998
1004
1008
1016
1042
1115
1195
1183
1110
1061
1061
1078
1096
1106
1116
1126
1142
1168
1202
1234
1262
1279
1281
1264
1230
1189
1147
1110
1077
1045
1013
987
969
959
955
954
957
961
965
965
967
967
968
968
969
967
965
965
965
966
965
963
960
958
962
960
962
959
957
957
955
956
954
953
951
949
952
955
957
953
951
948
948
948
946
945
944
944
947
948
951
950
948
945
946
948
948
944
943
941
942
943
940
939
936
940
942
941
940
940
940
938
940
942
943
939
938
940
942
943
943
944
942
943
946
950
949
951
950
950
954
956
960
959
959
960
963
967
971
974
973
975
981
981
983
985
984
986
990
991
990
993
991
990
990
993
992
993
993
992
996
1001
1000
997
995
994
995
997
997
998
997
996
998
999
998
997
996
995
997
998
997
996
996
993
993
997
994
992
992
992
993
997
998
998
995
995
996
998
996
995
995
992
992
991
992
993
993
996
997
1003
1002
999
997
995
997
999
998
997
995
994
998
999
998
997
997
999
1002
1003
1002
1000
1000
994
998
1000
999
998
998
995
999
1003
1003
998
999
998
999
1000
996
999
995
994
996
999
998
998
998
996
998
997
997
996
995
993
996
997
996
998
1000
999
1003
1007
1008
1004
1006
1005
1008
1012
1015
1018
1019
1019
1018
1020
1018
1014
1012
1012
1010
1010
1009
1007
1005
1004
1006
1007
1008
1009
1008
1005
1008
1011
1013
1017
1026
1061
1149
1206
1156
1079
1041
1044
1054
1056
1049
1045
1042
1043
1044
1045
1045
1042
1040
1037
1037
1036
1032
1025
1015
1005
997
989
974
964
957
956
957
954
945
937
933
938
948
961
974
987
1004
1012
1011
1003
991
980
968
963
961
961
961
965
973
981
989
993
995
994
996
997
997
1001
1004
1004
1005
1003
1008
1011
1013
1015
1018
1013
1018
1016
1015
1017
1017
1015
1017
1021
1019
1020
1020
1018
1022
1026
1023
1023
1022
1021
1023
1024
1024
1026
1026
1024
1031
1033
1032
1034
1033
1031
1035
1036
1034
1032
1033
1031
1032
1032
1036
1034
1035
1037
1039
1040
1040
1039
1036
1039
1039
1046
1045
1044
1044
1043
1043
1048
1047
1045
1045
1041
1043
1046
1047
1047
1044
1043
1047
1046
1047
1046
1043
1040
1041
1042
1039
1041
1037
1036
1033
1033
1032
1027
1026
1023
1024
1025
1022
1019
1021
1018
1020
1021
1019
1018
1019
1016
1016
1017
1011
1008
1008
1008
1008
1012
1012
1008
1007
1006
1009
1010
1011
1009
1009
1007
1010
1009
1010
1009
1006
1007
1008
1008
1006
1005
1004
1002
1006
1004
1006
1005
1004
1003
1003
1005
1001
1002
1000
1002
1006
1009
1006
1006
1002
1003
1004
1009
1007
1004
1002
1001
1001
1003
1003
1004
1002
1000
1005
1005
1006
1003
999
997
997
1002
1001
999
999
999
999
1003
1000
999
997
995
997
999
1001
999
999
998
999
1001
1000
999
995
994
994
999
998
997
994
992
995
996
993
992
990
988
990
997
997
998
1000
1003
1015
1044
1125
1190
1160
1086
1043
1047
1050
1048
1042
1037
1039
1046
1043
1041
1033
1032
1029
1027
1022
1014
1010
1001
994
991
982
977
965
949
935
920
906
894
881
868
863
859
857
854
854
854
858
866
868
871
872
880
890
903
914
924
933
939
953
964
971
974
978
980
985
986
988
987
988
992
996
999
995
997
992
992
997
1003
1001
1003
1004
1005
1010
1013
1017
1018
1019
1019
1022
1023
1020
1022
1020
1021
1025
1029
1032
1030
1029
1028
1031
1032
1033
1036
1033
1031
1032
1034
1034
1033
1031
1032
1035
1037
1039
1037
1039
1039
1042
1043
1041
1041
1041
1041
1045
1045
1044
1045
1043
1042
1046
1048
1048
1043
1044
1043
1044
1048
1046
1044
1042
1042
1042
1046
1044
1043
1039
1039
1038
1039
1039
1036
1032
1030
1035
1035
1032
1029
1025
1022
1023
1024
1021
1018
1017
1015
1015
1013
1012
1013
1008
1006
1008
1007
1005
1003
1001
1003
1003
1004
1004
1003
999
997
996
997
997
997
998
1000
1003
1004
1001
1000
998
996
999
1003
1000
997
997
993
997
997
995
997
994
990
994
996
994
992
989
989
990
993
995
992
992
990
991
993
990
990
988
987
990
990
988
987
985
987
986
987
988
987
985
986
986
988
987
985
985
985
986
986
983
984
982
982
984
987
985
985
983
982
983
984
985
983
982
979
981
984
985
982
978
977
979
982
983
981
979
978
980
982
982
981
980
980
981
984
986
986
985
988
989
993
1009
1049
1130
1174
1132
1067
1031
1027
1031
1028
1023
1022
1018
1015
1013
1015
1014
1015
1013
1007
1001
996
994
992
987
982
972
968
964
960
953
946
928
913
900
891
882
870
860
849
845
847
846
845
844
846
849
851
855
853
856
866
873
882
889
900
912
921
930
939
946
952
956
961
967
970
973
972
969
973
977
982
982
982
982
980
979
983
983
982
980
982
984
987
989
991
989
993
997
1001
1002
999
998
1000
1000
1004
1005
1003
999
1002
1002
1005
1004
1006
1004
1004
1008
1010
1010
1007
1008
1006
1009
1010
1012
1012
1011
1009
1012
1014
1013
1014
1011
1012
1017
1020
1018
1015
1013
1014
1016
1017
1023
1021
1018
1017
1021
1023
1024
1022
1022
1022
1025
1026
1024
1023
1023
1025
1028
1028
1030
1026
1025
1025
1025
1027
1027
1027
1024
1025
1026
1027
1025
1021
1020
1018
1018
1020
1021
1019
1015
1014
1011
1014
1013
1010
1005
1003
1004
1006
1002
1001
999
996
999
997
999
992
988
988
989
992
990
988
987
987
987
989
989
987
982
982
984
985
988
984
983
982
982
983
985
983
981
980
980
982
981
980
978
977
982
983
980
979
977
978
978
978
975
975
973
974
974
977
975
976
974
972
974
976
973
968
967
968
969
970
972
970
969
968
970
970
973
968
968
969
967
971
970
967
964
965
964
969
968
964
964
964
963
964
966
962
960
960
961
961
960
958
958
961
960
963
963
961
960
960
962
964
961
959
959
958
958
959
959
957
955
958
960
962
964
961
960
963
963
964
965
962
963
967
976
988
1045
1128
1140
1077
1020
1005
1012
1013
1003
996
994
995
994
994
990
989
983
984
980
974
967
966
965
963
957
949
940
934
925
914
893
871
853
843
835
828
820
814
812
815
815
815
818
819
822
824
832
838
846
851
860
874
884
892
899
905
912
924
930
937
940
946
948
947
948
951
954
958
959
961
964
967
968
966
965
967
969
968
975
978
980
982
989
991
996
998
998
996
1000
1000
999
1002
998
999
996
996
997
998
996
997
997
997
995
996
994
994
995
995
995
996
993
996
1000
1004
1005
1001
998
1000
1004
1004
1005
1007
1003
1004
1006
1007
1007
1006
1005
1006
1008
1011
1009
1008
1010
1010
1013
1011
1013
1012
1010
1013
1016
1018
1015
1013
1011
1013
1013
1015
1016
1015
1010
1010
1010
1011
1009
1004
1002
1005
1003
1002
999
994
990
992
993
996
995
992
987
987
985
986
984
980
980
980
980
981
979
978
975
974
974
975
974
972
969
970
971
974
970
967
964
966
966
967
966
961
958
959
960
961
963
960
958
961
963
965
962
961
959
958
957
959
956
955
952
955
956
957
956
955
951
950
952
955
952
954
952
950
952
952
951
948
946
944
947
948
948
947
949
948
950
952
952
946
944
945
948
947
948
949
950
948
949
950
948
947
946
945
947
949
950
946
941
941
943
945
947
945
944
944
946
948
948
946
945
945
945
946
948
945
943
943
947
947
945
947
946
947
949
952
954
954
958
964
1011
1100
1128
1072
1008
986
990
996
993
987
981
982
984
984
985
982
974
971
971
969
966
960
950
944
937
931
924
912
893
875
859
848
838
825
813
809
809
807
806
802
800
804
808
812
815
821
825
833
846
859
870
875
879
889
898
911
918
924
930
933
936
938
943
943
942
945
949
952
953
951
951
949
952
955
956
956
958
961
966
967
968
969
968
969
972
977
977
978
979
979
980
981
983
981
979
977
979
981
985
985
982
983
985
987
990
986
984
984
986
988
985
986
982
982
989
992
996
995
994
994
997
1001
1000
1001
1000
1000
1004
1007
1008
1009
1009
1011
1013
1017
1017
1018
1017
1020
1025
1028
1028
1028
1024
1025
1023
1023
1023
1023
1017
1019
1021
1020
1019
1016
1012
1008
1008
1009
1009
1005
1005
1008
1006
1006
1003
999
995
992
992
992
991
988
984
980
984
989
986
984
981
975
979
978
977
974
972
971
973
975
973
971
966
967
967
967
964
962
960
962
963
964
963
960
959
958
959
961
958
956
954
957
959
961
959
959
959
958
956
958
957
953
953
952
954
954
952
950
948
951
951
953
953
949
944
947
947
949
948
946
943
943
946
948
948
947
946
945
945
947
944
943
940
942
943
946
945
942
942
942
940
941
941
938
940
941
941
940
940
938
936
937
939
941
941
939
938
936
939
941
941
942
939
937
942
943
944
943
942
941
944
947
948
950
956
978
1045
1121
1120
1053
997
979
985
989
985
977
972
973
975
975
971
967
962
963
963
961
957
954
946
940
934
931
925
921
913
901
886
872
859
850
837
828
819
816
812
807
802
802
807
809
810
811
810
817
821
830
835
839
852
864
876
885
893
899
906
916
924
929
933
935
933
933
936
939
943
942
942
945
949
952
952
947
947
949
948
950
952
954
955
961
967
970
970
969
968
969
971
974
973
972
970
971
974
975
975
977
972
972
976
977
980
979
978
980
980
978
980
980
977
981
982
986
985
984
983
984
986
990
989
992
989
990
992
996
995
994
996
996
998
1001
999
1000
999
1001
1004
1006
1005
1006
1006
1006
1007
1008
1009
1008
1005
1009
1010
1014
1010
1008
1005
1002
1002
1004
1001
1003
998
997
1000
999
997
992
989
990
991
989
988
984
983
984
984
985
983
981
981
983
986
988
987
985
981
979
977
975
972
969
967
965
970
971
968
967
963
963
966
966
967
963
962
962
963
963
960
961
955
957
960
961
960
959
957
959
960
959
958
956
954
954
953
954
957
958
957
956
959
958
959
955
953
951
955
956
956
956
954
952
953
956
954
951
950
951
952
953
951
950
945
949
950
952
951
949
949
947
952
952
951
950
949
947
950
950
953
955
960
968
982
995
1006
1019
1029
1044
1067
1094
1124
1153
1178
1199
1215
1207
1181
1142
1098
1055
1017
982
981
1005
987
939
905
898
900
900
898
899
901
902
904
903
902
903
904
906
905
904
901
902
902
906
903
902
898
902
901
901
902
904
902
905
904
905
905
901
898
898
897
900
899
895
892
897
898
899
897
896
892
893
892
892
894
893
889
889
889
890
889
889
889
892
896
893
894
889
888
891
892
893
894
891
888
884
889
890
891
891
889
891
893
894
893
893
891
892
896
899
902
906
903
905
906
909
912
911
910
911
918
921
922
924
924
926
931
933
936
936
935
938
940
945
944
944
947
951
953
953
953
952
952
953
953
955
955
954
952
953
957
957
957
953
952
953
951
952
954
955
953
954
957
958
958
953
952
953
955
954
950
950
948
950
952
955
954
952
949
948
950
950
950
949
948
950
951
951
952
952
950
950
952
957
958
958
952
955
955
955
955
953
954
953
956
957
954
956
954
956
955
956
958
955
952
952
954
955
953
951
951
955
955
957
958
956
957
961
963
968
968
966
962
963
966
967
967
970
969
972
974
977
977
975
972
971
972
971
967
966
964
965
968
969
967
966
962
961
963
966
965
962
959
960
964
968
967
965
962
966
968
967
966
964
964
963
966
967
964
965
964
966
967
968
967
965
962
964
965
966
965
966
963
966
970
971
971
969
967
971
977
985
994
1005
1016
1031
1045
1056
1072
1094
1116
1131
1124
1125
1196
1285
1294
1239
1178
1143
1115
1089
1054
1023
997
980
966
959
954
954
954
957
957
955
952
955
957
957
959
958
956
958
959
960
959
956
954
953
956
955
954
953
948
947
951
948
948
945
944
945
949
946
943
939
939
939
940
940
940
940
937
938
940
940
939
941
940
937
937
938
937
936
933
933
937
939
936
934
931
934
936
936
935
933
931
930
929
933
933
932
932
933
934
936
939
934
931
934
937
938
938
938
938
940
946
947
947
946
946
947
951
950
954
954
954
956
960
964
963
964
965
968
971
974
976
975
974
976
979
979
980
979
977
978
974
978
978
977
974
977
976
978
977
976
975
973
978
979
980
980
975
975
976
979
978
975
969
972
974
971
974
971
967
971
971
972
971
968
965
966
968
967
967
965
961
964
964
964
967
964
963
964
964
965
962
964
961
964
966
969
968
963
963
963
966
967
967
967
964
964
961
961
963
961
962
963
966
968
964
965
965
967
965
966
964
963
960
961
963
964
965
961
960
960
960
962
960
960
957
961
964
964
963
961
959
962
965
967
967
966
967
968
971
970
969
965
963
967
972
979
983
980
977
975
975
973
970
969
965
966
967
968
966
963
964
964
962
963
964
960
958
960
964
962
964
964
962
963
964
966
966
966
967
968
969
977
979
988
1042
1128
1142
1073
1015
999
1004
1009
1008
1004
1001
999
997
998
1002
999
997
995
999
1005
1016
1022
1027
1032
1036
1042
1050
1059
1064
1067
1067
1068
1065
1053
1029
1009
992
978
965
946
931
918
914
922
930
935
937
941
941
945
948
948
950
948
946
947
949
952
948
946
946
946
949
953
952
948
947
948
946
948
947
946
947
947
949
951
948
940
941
944
948
947
944
942
942
946
948
949
946
943
942
945
947
948
948
949
948
947
949
949
951
950
951
948
951
951
948
947
945
951
954
955
953
952
950
950
952
956
956
954
957
958
963
966
965
962
961
961
964
969
968
965
966
970
972
975
973
973
972
972
972
973
973
973
970
974
974
975
974
971
970
970
973
975
973
969
967
969
972
972
972
968
966
966
967
966
965
964
964
967
966
964
962
964
962
967
968
964
963
964
962
966
965
966
964
962
959
962
967
967
968
963
956
957
962
964
964
962
958
960
963
963
962
960
960
962
966
964
964
966
963
965
963
960
958
958
955
957
961
957
955
951
953
957
963
964
967
957
957
957
960
959
956
957
957
958
958
957
958
958
955
956
955
956
953
953
950
951
953
955
955
953
952
950
950
951
947
947
949
952
956
959
958
955
952
957
958
954
956
959
958
959
961
967
967
973
976
996
1059
1138
1137
1072
1019
1005
1010
1009
1000
994
992
993
994
994
993
990
987
987
988
986
982
978
976
972
965
961
954
945
935
925
911
892
876
867
855
845
835
827
823
822
820
820
820
824
827
831
833
837
843
848
854
863
871
879
888
892
902
907
917
926
936
939
942
945
947
947
947
951
954
957
957
959
958
959
956
956
953
954
961
964
965
966
964
967
972
976
977
980
982
984
986
984
985
984
981
983
987
990
990
992
990
992
992
994
994
995
992
995
995
995
995
991
994
997
1001
1002
1000
997
995
998
1000
1004
1001
1000
1001
1006
1007
1007
1005
1004
1003
1006
1006
1007
1003
1001
1000
1000
1007
1007
1009
1006
1004
1006
1004
1005
1003
1003
1002
1003
1004
1004
1001
1001
999
998
1001
998
993
991
989
991
990
987
983
978
977
977
980
977
977
972
973
972
969
968
965
965
964
970
972
969
964
966
962
962
961
962
960
961
959
958
960
962
960
963
961
963
963
964
962
962
961
958
957
957
961
958
960
958
961
966
963
955
949
952
953
954
953
955
955
954
955
957
956
953
951
954
955
955
954
952
950
953
955
959
958
952
953
953
955
953
950
951
950
956
959
962
959
953
951
953
954
955
954
955
951
948
944
948
951
951
948
948
949
950
948
947
947
947
951
950
952
952
949
948
945
947
946
944
943
946
950
951
950
947
947
949
950
949
950
946
943
944
948
954
958
955
954
956
958
956
959
967
987
1042
1125
1152
1094
1022
993
997
1001
1000
993
987
981
982
985
983
981
977
973
976
978
977
972
964
956
959
955
954
948
941
934
930
923
911
889
876
864
860
852
849
841
837
834
838
838
834
829
823
825
831
831
830
830
833
836
847
857
871
882
891
900
906
915
922
924
926
926
936
942
944
944
943
939
945
948
952
954
953
953
949
949
947
947
944
943
950
957
960
964
965
966
971
975
976
973
973
968
967
971
969
971
969
969
969
974
974
974
972
972
976
982
986
983
980
979
983
984
984
982
979
980
982
986
989
986
982
981
985
989
989
987
985
983
984
986
991
992
986
989
990
992
988
988
983
983
988
993
994
989
989
987
991
991
991
989
989
988
990
993
990
989
986
985
985
984
982
977
978
977
977
975
973
970
963
963
964
965
966
967
970
969
970
965
962
958
958
958
962
961
965
963
962
963
961
967
970
970
964
956
951
952
952
954
953
952
957
962
960
959
955
951
954
954
956
956
958
960
961
960
961
955
949
946
949
950
949
947
946
946
949
951
953
951
947
943
949
952
952
951
948
947
948
951
951
949
945
943
942
943
945
943
940
939
944
944
943
942
940
939
936
941
941
938
934
934
938
942
946
944
940
940
944
945
943
941
940
941
945
946
945
944
940
938
940
941
943
942
942
943
945
945
944
944
942
941
943
946
952
952
949
944
945
952
954
959
972
1002
1078
1153
1140
1067
1009
994
1000
1005
999
990
982
981
980
983
983
978
973
967
968
966
966
960
955
951
949
944
942
935
928
921
908
895
880
865
853
842
838
834
829
827
825
822
822
826
825
827
828
829
832
837
841
848
856
868
881
890
895
901
909
920
931
940
942
944
941
944
949
956
959
958
955
955
958
963
962
963
964
964
970
976
981
984
986
989
993
995
994
994
992
989
990
991
990
987
985
985
988
989
988
990
990
989
993
992
993
992
991
989
992
996
998
1003
1003
1002
1001
997
992
989
989
992
999
1003
1003
1004
1004
1005
1006
1009
1009
1007
1006
1007
1011
1011
1008
1009
1011
1009
1011
1012
1009
1008
1008
1010
1013
1011
1010
1008
1004
1003
1005
1009
1008
1004
997
995
998
1001
1001
995
990
990
990
992
993
992
986
982
982
980
980
977
973
972
972
977
983
983
978
973
971
971
969
969
972
972
976
975
973
969
968
967
972
971
969
966
966
967
967
967
966
959
956
957
959
960
963
963
963
962
965
965
966
965
966
963
969
969
965
954
949
950
954
958
962
961
960
959
961
960
956
953
954
953
954
957
957
957
956
950
949
950
949
950
951
949
952
956
956
956
955
953
954
957
958
960
955
955
951
951
953
954
954
953
950
951
955
958
959
956
956
955
957
956
952
946
945
946
949
947
945
944
950
956
959
962
963
964
967
971
986
1014
1084
1158
1148
1072
1008
989
995
999
997
995
988
982
978
980
979
979
975
969
966
962
960
953
947
938
930
924
916
904
884
867
851
845
840
833
825
820
817
816
813
816
818
824
826
823
824
825
833
842
853
869
880
888
895
901
908
913
926
933
942
945
946
946
944
950
955
954
956
957
959
962
960
956
955
951
957
963
966
969
970
970
972
974
973
973
978
980
986
985
982
976
973
972
979
983
982
983
979
980
984
987
988
987
989
986
994
1000
999
996
995
997
998
999
1000
1001
1004
1006
1007
1010
1012
1013
1014
1014
1018
1020
1020
1014
1009
1006
1008
1010
1009
1009
1010
1008
1010
1012
1013
1010
1009
1009
1011
1014
1016
1013
1011
1008
1011
1014
1011
1010
1011
1011
1014
1014
1013
1010
1010
1005
1004
1006
1011
1012
1012
1007
1002
990
980
977
979
984
991
996
995
994
993
992
993
992
986
979
976
976
979
981
981
980
976
973
973
973
974
971
973
975
979
982
982
977
974
968
968
971
973
970
974
973
980
980
978
976
975
972
980
986
986
980
979
976
976
975
966
960
957
952
960
967
969
968
967
972
973
977
975
972
968
969
970
971
969
964
964
967
971
972
972
975
979
990
1000
996
974
949
942
944
953
962
964
965
966
966
978
987
995
1005
1004
992
970
961
960
966
967
960
960
962
967
976
980
984
989
986
985
993
997
983
968
970
978
983
986
1002
1038
1097
1169
1158
1076
1011
993
1001
1011
1016
1019
1020
1023
1025
1014
999
989
987
986
990
997
996
983
964
948
938
933
933
936
933
930
917
901
892
891
870
837
814
819
850
882
903
910
897
875
851
851
873
903
910
897
895
914
949
985
1002
985
945
925
939
973
993
995
1002
1025
1055
1060
1019
965
928
922
943
992
1041
1051
1022
979
957
974
1004
1013
999
989
996
1024
1046
1045
1022
991
969
971
986
997
995
997
1015
1059
1090
1088
1074
1048
1010
990
996
1017
1035
1033
1019
1029
1054
1047
1001
951
929
937
960
996
1028
1049
1060
1077
1087
1070
1022
964
944
972
1021
1050
1049
1020
997
1000
1006
1005
1002
1006
1031
1068
1078
1034
983
961
981
1028
1051
1033
993
972
1004
1045
1060
1036
1011
1005
993
992
1015
1041
1030
977
934
934
966
994
977
928
901
937
1015
1083
1087
1022
951
915
917
954
1003
1040
1037
981
925
920
967
1015
1009
961
921
928
971
991
983
950
921
906
926
962
972
945
919
937
969
977
950
929
930
936
937
931
945
1007
1059
1023
926
856
866
926
970
973
937
895
882
897
934
971
987
968
966
1015
1042
979
876
836
892
971
980
922
895
916
945
957
948
923
921
935
932
929
938
978
1018
1005
940
870
828
835
890
960
1000
986
954
944
961
996
1040
1043
989
897
837
841
881
914
928
938
968
1028
1087
1107
1075
1010
964
985
1067
1143
1172
1182
1202
1239
1241
1179
1121
1130
1116
1039
982
988
1015
1021
1014
1007
995
993
983
942
893
881
899
915
911
914
950
999
1027
1014
966
912
887
896
920
933
936
949
973
994
1011
1036
1039
989
907
843
823
846
889
927
959
998
1025
1011
966
935
917
893
865
859
892
948
992
981
941
922
934
951
975
1003
981
902
833
823
855
883
906
935
969
992
997
980
945
901
866
840
831
853
910
986
1045
1066
1032
955
882
857
875
891
875
845
856
913
984
1026
1017
977
919
863
843
881
962
1037
1067
1053
1009
961
925
903
897
902
909
908
917
942
972
994
999
996
984
971
964
982
1020
1033
1018
995
976
966
990
1036
1051
1008
940
912
917
933
947
975
1007
1031
1026
1004
978
953
909
888
939
1025
1071
1049
1001
982
992
1001
983
951
935
958
1005
1038
1024
965
899
884
934
1004
1042
1036
1014
999
988
982
995
1037
1068
1046
985
930
907
918
949
983
1018
1031
1002
973
969
979
976
966
975
1005
1024
1013
986
970
987
1009
1009
967
922
913
941
981
1010
1023
1016
993
964
948
948
970
995
1006
1012
1020
1026
1013
995
990
991
977
948
921
913
927
960
1000
1047
1087
1100
1069
994
901
850
874
940
1010
1060
1078
1043
993
988
1017
1034
1026
994
959
943
951
955
939
940
973
1011
1035
1031
1010
980
956
962
1014
1092
1142
1097
983
892
877
915
964
1001
1012
1012
1016
1031
1032
1026
1036
1063
1084
1090
1127
1213
1248
1233
1216
1217
1225
1240
1252
1272
1299
1307
1265
1194
1126
1091
1077
1067
1054
1043
1048
1049
1047
1055
1036
974
915
918
967
1023
1050
1031
979
941
947
986
1025
1042
1040
1024
1011
1020
1045
1063
1037
969
911
906
941
990
1024
1034
1019
984
967
974
987
981
967
953
955
979
1024
1067
1065
1015
962
945
960
992
1024
1045
1041
1005
967
952
949
953
956
962
965
962
963
977
1004
1030
1025
997
976
977
984
1000
1013
1028
1042
1044
1025
983
933
900
893
917
956
1000
1026
1036
1030
1015
999
996
1011
1048
1073
1057
1008
952
923
933
953
966
975
982
993
1007
1024
1038
1039
1035
1053
1082
1074
1024
978
964
971
987
1000
1005
998
982
973
990
1024
1049
1051
1042
1033
1031
1035
1032
1023
1015
1007
1003
997
1002
1021
1042
1055
1049
1028
1011
1004
1017
1031
1039
1039
1034
1012
988
979
990
1017
1025
1004
990
1010
1033
1021
993
973
978
991
1004
1011
1007
1001
999
998
1008
1011
999
985
983
995
1008
1003
991
983
987
990
989
978
985
1001
1016
1014
1010
1004
1013
1025
1028
1007
975
952
953
976
1006
1026
1023
1009
992
980
983
998
1011
1013
1006
995
994
995
995
999
999
998
994
990
985
985
983
986
985
980
983
1002
1028
1045
1049
1027
988
970
983
1004
1009
1002
991
983
984
990
1000
1006
1012
1017
1012
1006
997
989
984
987
992
999
1006
998
984
971
970
974
990
1051
1159
1204
1150
1075
1036
1037
1039
1032
1030
1025
1020
1011
1003
1005
1009
1015
1020
1019
1008
996
988
978
975
968
970
965
957
952
949
948
947
946
939
926
913
908
914
933
952
964
983
1005
1011
1009
1010
1007
995
969
943
925
927
940
955
966
964
950
937
938
949
960
967
970
969
967
965
962
962
955
950
948
957
968
972
977
983
988
992
987
985
982
984
981
975
976
979
980
980
978
977
977
976
977
977
973
973
980
984
988
986
982
981
979
975
972
970
971
973
975
973
970
965
957
960
973
991
996
988
977
977
984
993
988
983
977
975
974
982
987
993
993
986
983
982
988
989
992
992
988
981
979
980
985
985
981
976
971
966
969
972
968
961
956
964
974
978
968
960
956
964
968
973
968
963
964
964
967
966
962
957
952
942
937
937
944
956
968
976
978
976
966
961
958
955
951
954
962
971
968
961
952
947
945
945
952
958
963
961
949
935
932
938
942
949
957
964
964
958
949
940
943
945
949
942
936
932
936
945
956
962
956
946
935
921
920
936
961
974
973
964
951
941
937
940
939
930
924
925
935
949
957
958
949
941
936
935
940
944
951
955
957
955
948
940
923
907
907
933
966
983
978
964
947
942
940
936
923
909
905
922
944
958
964
960
948
938
933
931
928
932
944
955
956
938
917
909
915
932
943
949
951
951
950
941
941
960
1024
1124
1169
1116
1048
1015
1011
1004
986
965
950
947
953
965
987
1011
1014
997
968
944
937
944
948
955
955
942
918
904
894
887
890
898
910
908
870
825
801
789
790
800
810
823
835
845
842
827
806
791
785
800
827
854
875
895
910
915
910
911
906
904
900
902
913
932
946
958
962
962
956
945
931
930
938
952
968
990
1005
1007
989
954
919
905
920
950
982
1000
997
987
975
965
955
946
948
958
976
983
984
981
978
980
982
988
990
993
995
1001
1002
994
983
972
967
965
969
970
975
981
992
998
998
987
976
966
956
951
964
995
1030
1046
1043
1026
1000
974
958
962
967
975
980
987
1000
1007
1009
1001
990
981
971
970
972
979
987
993
997
999
999
997
992
989
986
979
965
948
943
957
982
1004
1011
1011
1009
1002
982
961
956
963
972
972
962
955
948
948
948
950
956
963
970
979
987
981
963
945
946
978
999
982
939
914
918
944
972
991
988
963
928
914
919
941
964
979
967
935
911
904
913
932
970
1027
1054
1009
919
856
858
892
923
937
938
936
936
942
951
960
975
990
978
939
896
882
893
913
923
928
929
931
936
941
944
935
915
901
908
922
935
938
932
924
917
914
913
921
931
934
934
935
943
940
923
911
907
909
914
919
915
910
904
912
931
946
946
938
929
925
924
924
924
925
927
935
942
947
942
923
900
882
888
902
916
929
937
945
954
961
946
923
907
912
929
964
1036
1115
1127
1064
998
971
964
953
944
935
938
945
950
948
945
937
929
925
926
927
922
915
910
904
893
877
859
838
826
835
853
859
854
840
828
822
817
814
809
806
806
810
815
811
802
803
807
813
823
830
838
848
861
872
880
882
879
877
884
901
924
947
964
966
951
933
916
902
901
914
925
944
951
953
952
949
940
935
936
939
942
948
954
964
969
976
978
978
972
970
965
965
960
956
963
975
982
986
988
983
978
976
976
982
987
986
987
988
986
982
983
982
985
992
997
998
994
991
989
992
995
994
997
997
996
997
999
1003
1005
1006
1004
1001
1002
1005
1006
1003
990
979
983
998
1014
1024
1025
1022
1022
1025
1022
1023
1018
1018
1017
1017
1019
1017
1015
1011
1012
1014
1015
1015
1012
1013
1014
1015
1011
1005
999
1004
1011
1011
1010
1007
1001
1000
1004
1007
1008
1010
1007
1005
1000
1002
1001
1001
1000
995
994
994
990
993
992
992
993
993
992
990
988
990
993
993
990
988
987
990
987
987
985
984
985
988
989
988
991
993
991
989
987
986
985
984
980
978
980
984
984
988
984
986
989
988
986
984
984
989
985
982
983
982
982
980
978
981
980
979
980
981
985
982
983
981
981
982
983
987
983
979
976
979
982
984
980
976
974
976
978
978
981
980
979
982
985
985
984
981
978
979
980
976
978
977
979
979
979
975
974
973
976
981
986
987
984
983
988
995
1011
1046
1123
1194
1175
1099
1047
1032
1037
1034
1028
1022
1019
1018
1018
1019
1016
1013
1011
1009
1005
1007
999
998
997
998
993
984
976
972
964
955
943
927
910
899
895
885
875
864
852
844
841
839
841
838
837
835
837
842
845
845
847
856
864
872
883
893
899
902
909
919
929
937
944
952
962
969
979
979
978
978
978
983
986
985
985
987
986
983
982
981
979
985
988
994
1000
999
999
1006
1008
1006
1004
1003
1007
1011
1018
1020
1019
1017
1013
1012
1016
1020
1021
1023
1023
1032
1038
1043
1039
1037
1032
1028
1027
1029
1031
1030
1028
1026
1029
1029
1027
1024
1022
1022
1024
1028
1026
1027
1025
1025
1025
1025
1025
1025
1028
1033
1034
1031
1030
1028
1031
1035
1036
1039
1034
1035
1031
1035
1038
1038
1035
1035
1031
1033
1036
1034
1035
1032
1032
1028
1030
1031
1030
1029
1024
1024
1023
1023
1020
1016
1013
1012
1014
1014
1013
1008
1004
1006
1005
1005
1001
1003
1003
1001
1004
1006
1003
1001
998
996
998
999
999
997
990
991
991
991
994
991
987
989
992
992
990
989
985
986
988
987
984
984
981
983
984
989
988
985
981
979
983
982
980
977
978
979
983
981
982
979
977
976
978
980
980
976
973
974
974
974
972
975
973
974
975
976
975
974
971
972
973
973
973
972
969
972
973
972
970
971
967
968
969
971
971
971
966
968
970
969
969
968
967
965
966
967
966
966
966
967
968
969
967
966
962
964
968
967
969
968
965
965
968
969
970
969
969
968
971
974
980
989
1016
1101
1174
1152
1075
1023
1015
1020
1021
1017
1011
1006
1003
1005
1004
1002
1000
997
993
991
992
989
982
977
969
965
958
950
942
934
916
902
889
878
870
859
846
837
834
833
831
826
825
826
826
825
825
826
829
835
844
849
860
871
879
889
898
909
921
931
935
941
950
954
956
956
955
957
963
965
967
964
969
970
972
973
975
974
975
982
985
988
988
991
991
992
997
998
1000
998
998
1002
1003
1003
1003
1001
1000
1003
1006
1007
1009
1006
1006
1005
1008
1008
1007
1009
1008
1011
1012
1011
1011
1011
1013
1014
1017
1018
1019
1018
1016
1019
1022
1023
1022
1022
1021
1022
1024
1024
1025
1026
1024
1026
1029
1029
1029
1030
1032
1033
1035
1036
1035
1035
1034
1035
1036
1035
1035
1033
1030
1033
1034
1036
1034
1033
1031
1031
1027
1025
1021
1018
1013
1012
1009
1009
1008
1006
1003
1000
1001
1002
1000
998
995
995
996
997
996
993
992
992
993
991
987
989
987
989
990
991
989
988
986
987
987
986
985
985
982
983
984
983
982
980
981
981
983
983
980
980
978
979
978
982
980
979
978
979
981
980
980
978
973
975
977
977
978
976
975
975
975
974
973
974
971
973
976
975
975
972
971
974
974
973
973
971
969
971
972
974
973
971
972
973
973
974
975
972
972
972
975
975
973
973
971
971
972
975
973
971
970
973
975
977
975
970
971
972
974
974
975
973
972
973
976
978
977
982
990
1016
1077
1170
1195
1133
1056
1026
1027
1031
1025
1019
1011
1011
1011
1011
1006
1001
995
994
993
988
986
978
970
962
957
952
945
935
920
906
894
885
874
864
853
851
847
847
843
842
839
843
845
846
847
850
856
867
883
894
905
914
923
933
944
952
958
962
967
971
974
975
976
979
979
981
984
986
982
984
984
985
988
991
994
995
995
997
1002
1003
1004
1004
1004
1006
1008
1008
1010
1009
1009
1011
1011
1012
1011
1009
1006
1011
1013
1016
1016
1014
1014
1013
1016
1017
1018
1014
1016
1018
1022
1024
1024
1023
1020
1022
1023
1027
1023
1024
1023
1026
1030
1032
1033
1032
1028
1031
1033
1034
1035
1035
1033
1035
1036
1038
1036
1035
1034
1034
1037
1040
1039
1038
1035
1038
1040
1041
1038
1035
1032
1033
1034
1031
1028
1025
1024
1023
1024
1022
1018
1015
1012
1013
1015
1013
1013
1008
1007
1005
1007
1006
1003
1001
999
996
998
997
995
994
994
995
995
995
996
993
995
994
998
995
995
994
993
995
995
997
994
991
992
994
996
998
999
996
994
996
997
996
992
988
983
984
985
985
983
980
975
978
980
981
980
976
974
976
977
978
974
973
973
973
975
975
974
973
971
972
972
973
970
969
967
968
972
973
971
969
967
970
971
971
971
968
967
969
971
971
971
969
967
968
969
970
969
968
967
966
968
969
967
965
965
967
971
970
970
967
964
964
967
974
979
990
1002
1017
1033
1049
1060
1076
1100
1126
1150
1163
1216
1298
1319
1266
1197
1144
1107
1073
1038
1009
979
964
958
953
951
954
959
960
959
960
958
961
960
963
962
960
958
959
956
956
954
954
950
953
955
952
948
946
942
942
943
944
944
940
935
940
940
942
941
938
936
936
937
936
936
933
931
930
931
929
926
924
923
924
926
924
921
918
917
919
921
920
918
917
917
916
918
918
914
914
915
916
913
918
918
916
916
921
924
925
924
921
921
923
927
929
931
932
931
934
940
940
941
942
942
944
948
950
953
955
956
959
961
965
967
966
965
969
971
973
973
972
973
971
972
974
971
972
970
973
974
974
973
971
971
971
970
970
970
971
970
972
975
975
973
970
969
969
971
968
966
965
966
969
968
970
967
966
964
963
963
964
962
960
960
961
965
966
962
960
960
960
962
963
964
965
966
968
967
966
963
960
962
963
967
966
966
963
961
961
966
966
968
964
961
962
961
960
956
955
957
959
961
964
965
962
961
960
959
959
960
961
960
961
962
959
957
957
953
956
956
959
959
963
962
961
963
964
965
963
965
968
974
976
976
975
975
977
978
979
978
978
972
972
969
966
965
966
961
964
966
963
960
964
962
964
964
967
967
963
962
963
967
966
964
961
958
961
965
966
966
968
973
976
979
979
978
987
1022
1114
1168
1123
1050
1014
1015
1022
1020
1014
1010
1014
1023
1037
1048
1058
1069
1080
1088
1100
1116
1134
1149
1162
1176
1184
1176
1147
1108
1069
1037
1009
981
953
925
914
916
924
928
929
931
930
935
939
942
940
937
936
933
938
941
943
938
936
934
934
934
934
933
932
931
932
933
933
931
929
927
928
931
930
927
928
926
926
925
926
925
921
922
924
925
926
923
920
918
920
924
924
924
922
920
922
923
924
922
923
916
922
925
924
922
921
923
923
925
924
924
924
924
925
925
927
927
927
925
929
933
932
931
932
931
935
939
939
937
938
939
942
944
945
944
946
947
951
951
954
954
956
955
954
957
961
961
958
958
958
961
961
960
959
959
959
960
958
956
956
957
957
961
958
956
953
956
956
959
958
955
954
953
952
953
953
951
952
950
952
953
952
953
950
951
950
954
953
953
950
949
953
953
952
952
949
948
951
952
954
951
951
948
949
950
953
950
950
952
949
953
954
953
951
950
952
954
955
952
950
948
950
950
949
948
947
947
950
949
949
948
945
947
946
947
949
951
947
947
951
950
948
947
946
945
949
951
948
947
943
944
948
949
949
946
946
944
948
946
948
946
942
940
942
943
944
942
939
939
943
941
944
942
941
943
942
949
947
948
951
953
954
960
969
979
1003
1067
1160
1187
1121
1045
1009
1010
1017
1014
1010
1000
996
993
992
992
989
985
981
977
974
971
970
964
955
948
943
939
932
922
911
900
889
878
867
859
848
837
829
823
820
818
814
811
813
815
815
816
816
818
824
830
835
843
850
861
873
881
888
894
900
908
917
923
931
933
936
936
938
942
945
944
947
947
949
951
950
948
947
948
948
953
953
955
960
961
963
970
970
969
972
974
976
980
980
980
977
978
980
983
984
983
984
982
983
988
986
988
985
988
987
987
990
990
986
989
991
993
995
992
992
993
993
995
997
994
990
992
996
997
996
996
995
994
999
1000
1000
997
997
995
997
1000
998
1000
997
997
1000
1002
1002
1001
997
997
1000
999
1001
998
995
995
997
998
996
993
991
989
990
988
987
983
981
980
982
980
979
974
972
969
973
972
973
969
964
964
966
967
965
962
960
957
960
963
963
960
958
958
960
958
960
958
954
954
956
954
957
953
953
952
951
955
953
953
951
949
951
951
952
950
945
946
949
952
951
948
948
946
950
947
949
948
944
945
946
950
950
947
946
944
945
945
947
947
944
944
944
944
944
941
942
940
943
944
944
942
940
939
940
943
942
941
940
938
938
938
939
940
940
936
938
941
938
938
937
936
936
939
943
936
935
937
938
940
939
937
934
935
935
938
934
932
933
934
934
937
937
936
936
936
935
939
938
934
935
935
937
938
940
944
946
955
975
1035
1125
1149
1083
1012
987
992
993
988
977
972
973
975
975
970
966
963
960
962
954
950
945
940
934
930
921
911
906
895
888
876
864
851
840
833
827
818
812
808
805
804
806
809
812
811
812
815
820
826
831
837
846
856
866
877
883
891
898
904
910
914
923
924
926
929
930
933
935
934
937
936
939
939
940
940
939
938
941
944
947
949
949
952
956
958
962
959
962
960
962
965
966
964
963
964
966
969
968
967
965
966
967
970
971
969
968
969
969
973
972
972
971
971
973
975
978
978
976
972
975
977
978
975
974
975
977
981
982
982
980
980
981
985
984
984
982
983
984
986
989
989
988
988
989
990
990
993
991
990
992
994
994
991
989
989
992
993
994
991
987
985
989
988
987
985
978
979
980
980
978
978
972
972
973
970
970
967
966
964
965
967
965
963
960
958
957
959
957
953
952
952
950
952
954
952
950
949
950
950
951
948
944
942
945
943
947
943
943
942
944
944
946
943
941
938
943
942
942
942
941
938
941
940
940
940
936
934
936
939
938
934
932
933
937
936
938
938
934
934
935
936
935
933
931
929
931
933
930
930
928
927
930
932
932
927
926
926
928
928
929
930
927
926
927
926
928
927
925
923
926
930
928
930
929
926
925
928
927
926
927
926
928
931
932
929
926
925
928
931
931
931
930
932
934
937
937
939
939
945
966
1012
1104
1171
1128
1038
988
983
989
987
978
972
971
972
968
965
958
955
952
949
944
940
933
925
918
911
902
892
881
863
847
836
825
817
809
797
793
794
795
794
792
792
795
798
798
801
805
813
821
832
845
853
865
873
881
890
898
904
909
915
922
933
933
932
931
931
937
943
949
947
946
945
948
949
951
953
955
957
962
966
970
973
973
976
980
984
985
986
986
987
988
990
987
986
985
984
985
987
981
980
978
978
981
985
988
990
988
988
989
989
991
988
986
986
991
993
992
992
995
994
996
999
1001
999
992
993
999
1005
1005
1005
1003
1005
1009
1010
1011
1011
1012
1011
1015
1016
1016
1016
1015
1015
1016
1018
1018
1017
1017
1014
1017
1018
1016
1016
1016
1011
1009
1011
1012
1013
1013
1009
1008
1006
1002
999
994
991
992
991
992
990
988
987
988
989
986
986
984
983
983
981
977
975
970
970
973
976
973
969
967
966
969
970
970
967
967
966
967
972
971
967
966
965
965
963
966
966
966
965
965
963
963
959
957
958
961
963
964
963
964
963
964
963
964
961
962
963
963
962
962
962
964
960
959
960
960
959
960
960
960
963
962
960
958
956
957
959
962
958
956
953
957
960
961
959
959
957
961
960
955
958
955
953
955
957
959
957
955
955
957
959
958
958
956
960
961
963
960
960
957
956
957
964
963
961
963
962
965
971
972
976
986
1010
1075
1170
1213
1151
1065
1027
1025
1033
1029
1023
1016
1010
1011
1013
1009
1008
1003
1002
1002
1005
999
994
989
985
980
975
963
954
945
937
925
910
896
880
871
864
856
847
835
825
825
822
823
824
824
823
823
824
828
833
837
842
848
855
867
880
885
891
897
903
916
929
935
940
943
946
952
958
960
959
961
962
965
965
966
964
966
967
970
976
975
976
976
977
986
992
993
992
994
995
997
1001
1002
1000
998
999
1000
1002
1001
1002
1002
1002
1003
1006
1007
1007
1004
1003
1006
1007
1008
1008
1011
1011
1014
1018
1017
1017
1017
1017
1021
1024
1024
1026
1024
1026
1030
1033
1034
1034
1036
1034
1036
1039
1035
1031
1030
1030
1032
1033
1032
1031
1028
1030
1028
1035
1035
1037
1035
1033
1037
1037
1039
1038
1037
1034
1038
1035
1033
1033
1029
1034
1035
1036
1033
1027
1025
1024
1023
1023
1021
1016
1011
1012
1013
1014
1012
1009
1008
1004
1006
1006
1006
1002
1000
995
997
997
997
999
995
996
1000
1002
1001
1002
1000
997
997
998
998
996
994
988
992
998
998
999
998
997
999
1002
999
995
996
995
995
995
992
990
988
987
992
992
990
987
988
985
987
988
988
985
983
981
984
985
985
982
980
980
979
980
978
978
976
977
980
982
981
979
978
977
978
982
979
978
977
978
981
980
975
969
969
971
975
982
986
988
985
986
985
983
983
981
980
979
979
980
983
981
977
977
979
980
980
980
980
981
985
989
992
997
1010
1052
1146
1200
1154
1077
1036
1031
1040
1041
1030
1021
1021
1019
1022
1022
1018
1011
1006
1002
1001
998
993
988
975
967
961
954
945
934
922
909
898
887
876
868
861
853
852
852
849
844
838
835
838
841
837
838
841
847
856
865
874
884
890
901
909
921
930
935
942
948
955
963
967
969
969
970
975
978
979
982
981
982
985
985
983
982
981
981
989
990
994
994
993
992
993
998
1003
1006
1008
1008
1008
1006
1006
1005
999
1002
1006
1013
1015
1016
1014
1013
1016
1016
1014
1012
1011
1011
1013
1019
1021
1019
1016
1017
1019
1018
1018
1017
1018
1021
1024
1025
1024
1023
1027
1029
1030
1034
1036
1035
1034
1038
1039
1040
1041
1042
1040
1042
1045
1044
1046
1049
1051
1051
1050
1048
1046
1044
1040
1037
1037
1036
1035
1030
1030
1025
1025
1026
1024
1022
1020
1016
1015
1015
1013
1010
1006
1004
1005
1002
1003
1001
998
997
997
1000
1000
1000
997
995
996
1000
999
994
996
993
993
993
992
989
986
986
988
990
991
988
986
983
986
987
989
984
984
984
984
985
983
981
977
980
981
980
979
978
976
975
975
978
977
976
975
974
977
976
979
977
971
971
971
971
973
968
967
969
970
971
974
970
970
967
969
970
968
970
970
965
967
969
968
966
965
961
963
964
963
963
961
965
967
970
970
968
968
966
965
965
964
963
961
965
966
969
966
964
961
963
965
966
965
964
963
964
965
968
968
968
970
971
977
981
993
1027
1100
1178
1168
1092
1030
1012
1017
1018
1013
1007
1003
1002
998
995
997
994
988
980
973
970
966
966
959
951
943
936
930
928
920
906
891
879
871
863
856
846
839
836
839
839
836
834
835
837
837
841
844
845
849
856
870
883
895
902
909
917
927
938
947
952
955
960
963
967
965
969
968
969
972
978
978
977
974
974
977
978
982
981
984
988
991
995
995
995
994
996
998
1000
1000
999
997
998
1001
1002
1005
1002
1000
1004
1005
1007
1007
1005
1006
1004
1004
1006
1010
1007
1004
1006
1005
1009
1009
1011
1010
1011
1013
1015
1015
1015
1014
1016
1018
1022
1021
1021
1018
1020
1022
1025
1027
1024
1024
1021
1025
1025
1026
1025
1025
1027
1029
1025
1028
1025
1023
1022
1022
1023
1024
1020
1015
1014
1014
1013
1014
1011
1006
1008
1007
1006
1006
1005
1003
1002
1002
1003
1004
1003
1002
1002
1000
999
994
990
981
979
979
979
980
980
977
976
976
978
978
973
970
969
971
971
967
964
960
959
964
964
963
963
960
957
959
962
964
964
963
964
963
965
963
961
957
955
956
958
958
962
960
960
961
961
958
956
954
955
958
963
961
958
955
956
956
959
960
955
952
952
955
960
960
961
959
955
956
957
956
952
954
967
981
995
1005
1018
1029
1042
1056
1077
1103
1131
1162
1194
1218
1224
1213
1181
1139
1100
1067
1037
1001
959
925
909
901
894
889
886
883
882
888
893
899
899
897
895
897
898
899
899
897
896
895
900
902
898
895
895
898
898
899
896
895
896
899
902
898
894
893
894
897
899
895
893
890
888
891
892
893
893
889
891
889
889
889
886
884
885
885
887
886
884
882
883
882
882
881
881
877
879
880
882
884
882
882
885
888
890
889
888
887
889
885
887
884
881
882
884
890
894
894
895
892
896
903
908
913
913
914
914
916
921
926
927
928
930
934
938
939
941
941
938
941
947
944
943
944
946
949
952
953
952
948
950
953
955
955
954
949
951
953
954
953
952
951
953
953
956
956
956
953
952
955
956
955
956
953
953
953
956
951
952
953
953
953
952
952
951
949
950
953
953
953
952
950
956
954
958
957
955
954
953
956
957
956
957
953
956
958
960
957
957
953
952
957
955
954
953
954
955
956
958
957
959
956
955
958
958
960
954
953
955
959
960
959
959
958
959
957
957
957
958
961
962
958
956
954
951
953
956
958
960
960
956
958
963
961
965
967
968
970
972
973
975
974
972
970
968
967
966
966
964
961
962
962
964
961
960
960
962
964
963
962
962
961
960
962
961
961
960
957
957
958
961
961
962
957
958
961
962
964
963
963
963
967
971
972
974
975
984
1006
1056
1157
1227
1186
1099
1056
1065
1085
1097
1102
1110
1126
1150
1176
1203
1227
1245
1257
1249
1216
1178
1137
1100
1070
1041
1012
981
959
946
943
945
941
939
941
942
947
948
949
950
951
950
950
951
951
948
949
949
948
948
950
949
943
946
946
947
942
945
943
941
944
946
941
941
937
936
936
941
938
935
933
933
934
940
938
936
931
932
932
933
933
931
931
929
929
932
931
928
925
925
930
929
931
928
926
928
932
929
929
929
925
927
929
931
933
931
930
931
935
938
935
934
931
932
938
942
940
941
935
935
938
938
943
943
943
944
948
949
951
951
952
951
955
957
961
959
958
958
961
964
966
966
966
965
968
971
972
969
967
969
973
974
974
976
972
972
974
974
976
974
972
973
972
972
971
973
970
970
972
974
972
971
967
970
968
969
967
965
962
965
967
970
968
967
966
967
970
972
972
969
965
963
961
964
966
966
963
964
968
970
970
966
964
965
968
970
970
970
967
966
969
970
968
967
970
971
972
975
971
974
971
971
971
970
970
970
968
967
969
972
972
970
968
969
968
971
972
970
969
971
971
970
970
971
969
972
971
972
974
972
969
968
968
972
971
967
965
964
964
965
964
963
963
966
969
973
972
973
973
974
976
980
979
977
976
976
978
985
986
985
984
983
988
989
986
983
983
980
979
982
978
977
974
974
977
975
979
976
977
978
983
989
995
1006
1037
1115
1192
1175
1099
1043
1028
1033
1034
1029
1022
1016
1013
1014
1014
1015
1016
1012
1009
1010
1010
1005
1003
997
994
991
985
978
971
966
958
953
943
930
916
908
900
903
907
907
905
900
900
899
898
903
905
913
925
940
952
962
967
966
962
961
960
957
950
943
938
934
942
946
951
954
958
964
967
971
970
970
970
973
980
984
987
985
987
988
992
993
993
990
989
990
994
998
996
996
993
996
995
1001
1000
1000
997
998
1000
1002
1003
1001
998
1001
1003
1006
1006
1004
1002
1003
1006
1010
1010
1010
1008
1009
1013
1016
1019
1019
1015
1017
1016
1019
1016
1011
1009
1009
1010
1014
1019
1019
1019
1018
1019
1020
1019
1018
1018
1019
1024
1030
1030
1027
1021
1020
1027
1032
1036
1038
1032
1030
1029
1025
1020
1015
1020
1032
1043
1038
1019
1000
990
990
994
997
999
998
997
996
995
993
993
993
987
989
988
986
984
983
981
980
979
979
980
977
973
