857
857
857
857
857
857
857
861
861
858
856
854
849
847
840
830
822
816
811
805
807
811
810
812
814
812
812
811
811
811
808
808
801
801
805
810
813
813
809
804
804
801
802
802
803
803
802
804
803
806
806
808
811
808
814
817
825
844
873
910
945
969
977
976
978
984
998
1021
1046
1069
1073
1055
996
909
808
724
666
640
628
622
614
600
590
590
596
609
612
615
619
627
634
644
664
687
710
735
757
778
789
796
794
790
790
796
805
812
804
788
778
782
805
827
832
825
817
810
808
816
821
825
822
815
807
801
803
803
799
796
789
787
789
787
783
784
783
784
791
798
797
794
782
779
783
781
778
771
772
782
794
794
789
783
774
760
745
730
725
727
738
749
757
769
782
793
792
781
770
764
766
772
781
790
797
806
811
816
817
819
813
810
810
816
826
832
840
847
849
846
846
841
831
823
817
816
829
843
847
854
853
843
840
833
828
833
836
837
834
832
840
841
844
838
835
835
839
841
830
817
812
814
823
836
839
840
839
838
839
838
837
839
836
827
816
809
816
829
837
843
844
832
820
810
812
820
833
846
854
850
841
829
816
815
819
829
837
843
839
836
834
833
828
829
829
827
826
831
834
838
846
851
848
849
839
832
830
828
836
844
842
840
835
841
852
860
857
850
849
853
860
872
878
884
886
884
875
868
858
858
857
860
861
856
854
849
864
879
889
894
890
876
861
844
838
842
848
856
853
850
844
834
822
814
809
807
805
810
815
824
834
838
838
833
828
822
820
825
822
824
823
822
827
831
833
842
848
851
845
830
814
812
825
842
854
854
843
834
822
825
842
867
895
926
942
950
950
950
959
987
1031
1080
1109
1106
1066
990
897
813
757
721
700
684
660
634
618
602
595
594
597
604
605
605
608
612
622
637
649
655
663
683
707
735
763
783
795
801
803
801
796
790
792
803
818
830
830
825
816
808
804
806
810
814
819
823
826
822
820
812
811
810
811
815
814
809
803
798
794
790
787
783
787
790
793
793
792
792
790
786
775
765
762
766
776
787
792
791
776
760
749
753
771
784
791
789
780
771
768
766
772
783
781
783
783
787
787
791
799
809
822
830
828
824
816
815
822
829
830
835
834
835
842
846
847
840
837
844
852
858
858
853
844
837
836
835
837
841
850
858
861
859
854
851
850
850
853
856
853
843
832
829
834
844
851
849
840
838
834
837
834
826
824
827
833
840
844
849
851
848
845
845
844
838
834
828
835
845
850
850
841
835
833
836
843
843
837
832
833
836
847
849
856
855
854
848
840
839
845
853
857
853
852
852
853
851
844
843
844
850
854
858
854
845
840
835
838
842
849
851
850
853
853
852
853
857
860
866
869
873
873
877
880
880
882
882
884
883
880
874
870
863
861
867
881
890
898
893
887
880
881
884
875
860
845
839
842
847
851
857
855
848
845
843
839
837
831
829
828
827
826
831
837
843
845
839
832
826
818
819
824
829
829
825
824
829
837
836
839
833
826
822
821
823
819
817
821
841
871
902
933
954
959
953
944
950
978
1023
1073
1108
1111
1076
1004
917
829
757
703
670
651
644
638
635
627
615
607
600
602
607
606
607
611
620
630
643
658
673
692
718
744
767
787
800
802
801
798
794
799
803
812
821
822
826
830
828
816
799
788
784
795
807
819
825
833
833
829
823
808
794
787
789
792
795
793
793
792
792
783
776
767
763
763
765
770
776
780
784
785
779
771
767
760
756
752
752
753
763
776
782
782
784
778
771
766
761
757
760
762
769
775
784
790
791
799
799
805
811
813
817
820
821
811
798
792
810
829
847
856
855
851
840
835
834
837
837
833
830
831
834
838
837
836
831
835
831
830
829
832
826
818
808
818
834
851
861
861
857
844
832
821
816
813
820
823
825
823
820
815
817
822
834
839
841
839
834
830
821
819
825
834
843
845
839
836
833
830
829
826
823
819
815
819
826
832
835
841
841
843
842
841
836
837
837
830
827
827
834
844
857
868
869
865
854
842
833
831
835
837
842
841
839
834
833
835
837
844
844
853
857
854
850
851
854
864
865
866
871
875
875
875
872
872
878
881
881
876
872
863
856
849
853
860
874
884
892
899
896
885
869
842
832
832
838
845
853
852
850
845
846
841
831
818
807
810
814
818
823
828
831
833
834
836
840
850
855
852
850
845
844
843
844
836
837
839
837
837
829
821
818
814
814
821
836
856
879
905
932
960
980
987
986
981
986
996
1026
1059
1082
1083
1051
989
903
817
741
690
655
636
627
621
620
622
620
614
606
601
597
595
594
598
605
626
649
672
700
731
753
777
789
797
796
799
801
806
813
816
819
810
799
792
800
810
818
818
819
814
809
805
802
799
801
800
801
799
796
796
796
794
791
787
786
782
782
779
780
778
775
774
771
767
765
764
760
760
761
765
765
761
755
751
746
751
758
762
763
764
762
761
762
761
764
768
774
778
781
785
783
784
786
790
795
802
806
809
815
821
824
824
820
815
815
822
826
831
834
835
835
836
835
835
830
832
834
833
835
834
829
830
832
830
829
831
828
831
829
830
831
830
826
824
821
823
821
820
819
821
823
824
825
826
827
829
829
824
821
826
828
832
830
823
820
818
814
816
819
815
815
815
814
817
813
815
816
817
821
819
822
820
822
820
825
825
826
827
824
818
817
815
811
808
806
805
808
813
815
816
814
816
814
813
817
819
820
825
827
832
834
834
832
834
831
827
828
831
835
832
833
834
832
834
837
842
852
859
864
865
867
862
857
853
847
845
843
844
849
856
863
863
866
863
862
856
853
850
845
841
837
834
832
830
831
829
831
830
829
827
825
822
824
825
823
819
815
813
811
811
809
809
812
812
812
814
815
812
811
803
799
791
789
791
798
805
806
809
808
813
812
824
842
863
892
921
952
976
987
986
983
984
992
1011
1038
1065
1080
1079
1052
1000
925
843
768
709
671
651
643
636
630
624
618
615
614
612
607
607
605
609
615
619
629
645
667
694
723
753
775
794
807
811
806
808
805
806
813
819
823
826
828
828
825
822
818
818
816
816
818
819
821
818
816
811
809
804
803
805
804
801
801
799
798
802
798
793
790
783
781
778
776
776
777
775
777
774
772
774
770
770
766
763
762
759
760
762
764
767
770
769
770
771
770
774
769
777
781
787
792
793
797
798
798
800
805
808
810
813
818
821
826
826
829
834
835
835
836
837
838
839
844
844
849
850
849
850
851
848
847
845
846
846
846
848
848
853
851
853
848
847
848
847
846
847
844
848
850
850
847
849
847
844
843
846
844
843
845
846
846
850
850
846
847
840
842
841
843
840
848
847
852
851
848
850
849
847
846
845
845
846
848
851
853
853
850
847
847
848
848
846
846
849
850
849
854
854
853
854
852
852
850
851
846
849
853
857
857
859
856
856
861
859
859
860
860
865
865
871
874
878
880
878
878
880
883
888
890
893
892
892
894
895
886
884
879
877
879
882
890
895
901
902
903
899
888
882
877
872
868
867
863
860
861
858
859
861
859
853
853
852
852
851
850
849
854
856
855
856
854
855
855
855
854
855
855
856
859
856
859
859
859
857
852
849
845
843
845
856
875
902
933
960
983
987
987
981
972
978
988
1015
1050
1078
1093
1079
1031
957
878
806
755
722
701
687
680
670
663
658
654
653
651
649
650
650
647
654
663
674
693
724
753
784
811
830
841
848
847
847
852
854
856
861
858
860
857
854
852
852
847
848
845
850
849
851
851
847
843
841
835
831
829
829
826
829
829
829
829
822
820
817
815
810
807
805
801
799
795
792
788
784
779
775
769
768
762
761
762
768
769
777
778
783
787
792
799
804
809
813
820
823
827
835
834
839
842
842
843
847
843
844
848
852
856
856
859
857
859
856
857
856
856
859
860
867
865
868
868
869
871
868
866
862
863
863
863
865
866
870
871
867
865
864
860
859
855
855
855
857
859
859
859
859
857
852
853
853
847
850
851
852
853
851
853
849
852
853
853
853
851
853
856
855
856
857
857
858
855
851
851
850
849
850
853
855
860
861
858
857
856
853
852
853
851
855
854
857
853
861
857
859
857
857
856
856
857
861
864
867
869
872
871
876
874
874
876
876
879
883
890
894
898
899
895
892
886
881
878
874
874
880
888
894
898
900
896
889
882
872
865
859
856
858
857
859
856
858
851
851
844
844
840
843
842
842
841
845
850
850
851
850
847
844
841
842
839
837
838
839
841
843
847
846
844
846
847
842
837
836
836
840
844
855
871
894
920
945
975
995
1002
997
992
994
1006
1031
1060
1091
1105
1095
1053
980
891
802
733
687
663
646
641
631
624
619
614
613
613
612
616
619
622
628
636
648
668
691
723
752
776
798
815
825
828
830
829
831
833
835
834
834
835
838
837
837
836
837
833
835
836
832
827
828
827
827
827
823
824
823
821
824
818
816
813
809
808
804
805
803
805
805
802
796
796
791
786
783
785
784
786
788
787
791
788
787
788
788
786
784
780
785
789
792
797
797
803
804
808
808
811
811
815
819
823
828
834
839
838
838
841
844
845
850
850
851
853
853
855
857
859
859
859
860
858
859
855
855
859
858
859
860
860
863
862
856
862
860
858
856
854
854
858
857
862
861
862
860
857
853
856
854
853
853
854
857
855
854
857
852
849
852
853
853
856
858
857
860
859
856
856
855
855
856
857
855
861
860
862
863
860
862
860
859
858
858
859
860
864
864
865
868
867
866
865
865
864
862
860
865
867
867
869
872
873
871
869
870
869
874
876
877
881
885
889
892
893
893
892
890
892
894
894
898
903
904
902
902
895
891
887
885
879
881
882
885
887
890
894
890
886
880
872
864
857
855
851
849
847
847
848
848
848
843
844
842
839
835
833
834
837
836
840
843
840
840
839
839
839
837
836
840
841
841
846
848
848
851
847
843
835
836
831
834
847
869
894
928
958
985
997
999
996
997
1004
1030
1061
1091
1107
1092
1043
967
879
797
736
694
671
661
658
654
650
648
644
642
639
635
635
637
640
645
654
671
692
722
750
776
797
813
821
820
823
822
822
828
832
832
837
838
838
838
835
835
827
831
833
833
834
836
835
834
829
829
825
824
823
822
820
819
817
820
820
816
813
810
808
806
805
801
799
798
803
801
800
800
796
795
792
788
787
784
786
787
787
789
791
792
792
790
789
789
793
795
797
803
805
808
814
820
822
826
831
833
833
836
840
842
846
850
852
857
854
854
857
859
859
863
862
865
870
871
871
871
870
872
870
871
872
873
872
875
876
877
877
874
872
872
872
870
871
872
873
876
876
876
876
872
871
869
864
864
865
867
868
867
867
866
868
862
863
856
855
852
849
850
849
852
853
855
857
857
854
851
850
849
849
851
850
850
849
851
852
854
853
851
849
848
846
847
848
848
849
850
852
850
849
847
848
845
845
844
846
846
848
853
858
861
861
862
862
860
863
868
865
872
875
880
881
882
888
890
889
886
882
878
877
880
875
875
880
881
887
886
887
890
890
888
881
880
874
869
867
863
856
851
852
846
841
843
843
847
849
848
851
847
843
843
846
843
842
840
841
844
840
847
847
845
845
844
842
836
838
838
841
842
845
846
849
847
845
838
839
840
841
853
873
899
928
963
985
994
999
991
986
992
1010
1041
1073
1098
1104
1079
1017
938
850
774
721
685
665
655
642
632
627
624
620
622
621
621
622
623
627
638
656
682
713
745
773
793
810
819
822
822
820
821
823
829
829
834
835
833
830
825
824
828
826
825
824
829
830
834
829
828
820
816
817
814
811
810
812
812
811
809
803
807
802
800
799
793
791
788
789
787
787
789
787
786
786
782
783
778
778
777
780
781
784
786
792
794
793
793
798
799
798
800
805
806
814
818
823
827
832
830
832
833
836
837
840
845
845
847
846
844
845
847
847
843
846
849
849
852
852
855
854
855
855
855
854
850
847
847
849
851
853
852
851
854
852
852
847
848
845
843
844
847
847
851
849
849
848
845
844
842
840
841
839
842
846
845
847
846
846
844
845
843
849
844
844
847
846
844
849
845
845
849
847
847
847
847
849
853
852
856
855
853
851
848
846
847
847
849
849
848
852
857
854
856
857
856
856
855
856
853
857
860
865
867
870
871
872
869
871
871
872
876
881
887
888
889
883
881
878
873
871
869
873
875
880
885
887
888
887
881
874
867
863
858
855
856
856
851
850
850
851
848
846
845
843
841
841
840
842
844
847
846
846
846
843
839
840
839
838
839
842
843
842
844
846
847
843
840
839
836
834
835
833
835
840
850
871
895
924
949
972
981
980
975
977
985
1013
1043
1074
1088
1068
1017
941
858
792
742
716
703
696
686
679
667
659
655
651
648
647
645
646
650
658
673
693
719
743
770
795
809
817
823
822
821
823
829
834
838
837
835
834
836
838
840
839
835
835
834
836
833
832
834
830
832
830
829
829
828
827
830
827
821
816
811
807
810
810
810
810
810
808
805
804
802
795
795
791
792
788
789
787
787
787
790
792
792
791
792
791
790
789
791
794
800
803
807
812
816
818
818
817
823
825
828
832
838
840
846
848
850
849
850
853
850
850
849
850
856
859
858
863
861
859
857
854
855
856
859
858
861
862
864
863
864
862
860
855
853
855
854
856
858
857
857
858
857
856
852
851
847
845
847
845
846
847
847
851
856
861
860
855
851
841
835
841
848
851
857
853
848
840
837
836
837
835
838
837
841
842
847
847
845
846
843
839
844
842
842
845
847
851
853
854
853
851
850
850
854
851
858
857
863
871
870
874
875
877
875
875
872
869
868
871
872
874
877
871
869
871
872
877
881
878
879
874
874
866
865
858
845
840
839
838
835
836
837
837
836
834
828
831
832
831
828
825
826
827
830
828
833
829
832
830
831
827
826
824
822
817
816
817
820
821
823
824
825
821
819
816
811
805
801
800
805
811
828
847
872
892
902
906
907
909
923
950
988
1029
1062
1070
1059
1021
962
894
824
768
729
705
691
685
677
667
652
643
638
634
631
629
636
637
645
655
671
691
717
743
764
782
795
799
802
799
800
802
804
806
808
808
808
810
806
807
808
811
812
810
809
812
809
808
805
800
798
794
796
794
795
795
796
793
788
787
787
789
787
780
776
771
769
773
771
774
775
775
775
773
768
764
763
765
766
765
765
768
771
771
772
769
769
765
766
770
772
777
782
787
787
789
792
792
796
797
797
803
813
814
820
825
828
831
827
823
820
816
819
821
822
824
827
832
833
833
833
827
825
826
822
826
827
827
829
832
835
837
833
825
819
815
811
811
817
825
830
830
825
818
814
813
811
817
821
824
824
823
822
816
815
811
808
811
814
816
819
819
819
819
816
816
816
812
809
808
810
812
811
815
816
813
813
812
812
804
801
798
794
793
799
809
816
820
817
812
806
801
802
801
805
803
801
799
799
805
807
809
810
810
806
802
802
799
795
798
803
804
805
804
804
804
809
809
812
811
811
810
810
812
812
821
819
821
827
830
833
833
835
835
835
831
829
825
822
822
819
822
826
832
836
837
836
830
820
812
806
802
802
798
793
792
791
787
785
786
784
786
785
784
788
789
787
782
779
775
775
776
786
788
791
783
784
779
780
778
777
779
783
787
793
794
788
782
775
767
759
758
762
776
799
832
861
887
900
912
911
907
908
914
938
970
1004
1032
1034
1016
955
871
788
712
655
618
591
581
575
576
576
582
581
583
581
578
572
572
577
586
606
633
661
687
709
722
738
745
747
747
749
748
754
761
766
771
771
770
766
763
764
759
755
748
751
749
757
760
763
763
755
752
752
747
746
747
748
751
748
742
738
736
735
733
731
728
724
719
719
716
719
724
721
724
725
725
717
716
714
715
717
720
725
726
725
723
724
722
723
721
720
723
729
739
749
756
761
761
758
752
745
747
753
761
773
780
783
789
790
789
792
791
792
789
787
783
781
782
783
786
789
787
787
789
788
787
787
784
785
789
791
794
792
795
793
789
792
787
784
782
789
791
787
789
791
789
783
777
772
775
775
776
783
786
789
788
786
780
777
774
776
777
778
783
783
788
784
786
787
791
794
794
788
784
776
773
773
778
779
783
789
785
787
791
790
791
788
786
784
786
785
785
788
787
787
789
790
792
789
787
788
787
785
790
789
794
794
793
792
792
792
790
792
797
798
802
799
797
792
789
788
792
795
801
805
807
809
814
813
813
816
817
821
828
828
832
833
831
831
825
818
819
817
814
821
830
836
836
834
831
826
823
815
805
800
801
797
795
792
785
786
783
784
786
787
789
792
788
788
785
781
781
785
788
794
796
795
795
787
783
772
771
770
775
779
783
790
792
792
789
786
781
777
779
784
799
824
856
890
920
932
933
922
921
929
960
996
1029
1047
1032
980
900
814
735
677
644
629
621
610
600
591
580
573
572
573
573
571
567
566
569
578
589
605
623
646
677
699
721
741
751
753
756
760
767
774
779
783
784
787
782
776
770
768
770
768
777
775
775
777
778
774
774
771
770
769
768
769
767
767
763
764
760
759
755
755
754
751
749
744
740
737
734
735
738
737
737
738
738
737
735
732
730
734
737
738
742
740
735
734
735
736
740
741
746
753
757
763
766
767
768
769
768
772
780
782
783
787
790
794
800
802
804
803
798
798
801
802
803
806
811
817
821
816
811
811
803
802
804
804
808
812
816
818
818
816
811
803
801
801
801
801
803
809
809
809
812
809
805
799
792
787
788
792
796
801
803
804
803
802
802
802
801
802
801
798
797
798
798
802
803
803
807
808
806
805
803
801
800
800
800
805
806
801
802
802
805
804
805
805
803
803
803
808
813
814
809
805
797
797
798
799
798
805
809
812
813
814
813
809
809
808
810
809
810
816
816
821
824
822
824
823
828
829
836
839
847
852
851
845
840
835
831
830
826
826
825
829
835
840
847
852
849
840
832
828
824
818
816
814
809
808
807
809
811
813
811
806
799
792
787
784
789
794
799
802
803
798
798
798
797
796
796
794
791
792
793
795
805
805
808
807
802
799
794
788
790
790
800
815
838
870
902
934
954
961
957
947
947
957
979
1011
1045
1061
1060
1025
955
871
783
709
657
629
614
606
602
595
588
586
581
583
589
592
595
601
607
613
619
632
653
681
711
734
753
764
774
778
777
778
779
776
776
775
778
780
782
783
782
790
791
790
789
786
784
782
780
779
780
779
779
781
778
782
779
770
769
767
764
763
761
757
752
748
748
751
753
758
755
752
749
747
741
735
734
737
741
742
746
747
752
748
745
743
741
736
740
744
748
754
763
765
765
767
768
767
769
773
778
783
786
794
797
802
806
810
810
808
806
804
803
810
811
813
818
820
816
815
811
810
811
813
817
819
819
819
819
816
814
813
817
818
817
813
813
811
813
810
814
813
814
815
810
811
808
808
811
815
813
815
814
817
815
810
811
808
809
809
813
814
817
819
823
824
825
826
826
823
819
815
813
813
814
818
822
825
828
827
821
816
812
812
813
817
821
825
828
831
826
827
826
825
822
823
824
827
829
834
833
832
832
829
831
832
829
834
835
838
844
845
850
851
856
855
856
852
855
857
859
865
867
862
857
853
852
850
849
845
845
845
847
855
858
865
871
874
867
865
858
850
839
832
836
835
842
844
846
841
837
832
821
817
813
810
814
821
823
824
827
824
824
818
818
817
813
812
811
811
817
819
823
825
825
824
823
818
817
816
813
814
812
813
813
814
818
834
855
879
901
923
936
941
941
940
945
970
998
1033
1061
1068
1046
989
914
835
771
723
693
680
669
659
649
641
634
631
632
633
639
638
639
641
644
648
663
683
709
732
748
763
775
783
794
796
801
803
805
809
809
812
809
806
804
804
803
802
803
806
805
807
805
803
802
802
799
802
801
804
799
796
791
788
787
786
783
786
785
782
779
777
780
774
773
773
772
770
766
763
761
761
766
766
762
764
759
752
757
752
755
758
762
765
771
773
778
781
776
776
778
780
784
789
797
801
807
809
808
810
811
816
819
821
824
826
826
827
831
832
835
838
838
835
832
832
827
827
832
835
844
844
842
836
833
826
828
827
828
826
831
832
835
835
837
838
838
837
831
830
830
830
827
829
831
831
831
830
830
829
831
828
834
834
837
835
839
839
839
837
837
832
832
832
828
832
833
834
838
836
833
836
837
832
835
834
839
847
850
850
854
854
856
855
853
855
853
853
858
856
859
861
866
866
867
867
869
869
864
867
870
873
878
882
881
886
886
883
885
884
884
889
893
898
903
908
912
917
915
914
903
898
892
887
885
886
890
894
903
910
916
916
910
901
893
884
882
877
879
880
882
880
880
880
871
869
863
862
862
867
868
871
874
875
876
875
876
876
874
876
874
876
878
881
880
877
876
877
876
875
872
875
874
872
871
868
872
882
899
925
951
975
995
1001
1004
1005
1017
1039
1072
1107
1132
1137
1113
1059
981
898
824
773
748
732
723
711
696
685
676
669
667
663
664
666
669
669
677
683
697
710
725
752
773
795
815
830
843
848
851
850
850
852
851
854
857
856
858
856
860
861
862
860
860
860
856
855
851
848
851
852
854
856
852
856
850
847
843
842
838
835
835
828
829
831
827
830
827
824
821
819
819
818
817
815
816
815
812
815
816
815
812
811
810
812
809
810
813
819
826
829
834
837
839
840
843
844
850
857
859
862
869
871
873
875
875
876
878
878
879
881
885
887
889
891
890
890
890
890
886
886
888
891
892
893
895
896
896
895
894
889
886
882
886
889
892
894
895
894
892
885
886
883
882
879
875
877
880
880
879
884
883
884
881
881
877
875
878
878
882
884
886
888
890
888
886
882
876
875
877
879
883
883
887
888
889
889
886
884
882
879
883
884
885
884
885
884
883
883
882
878
880
878
879
879
883
886
889
891
888
888
886
886
885
885
886
886
892
894
898
900
900
901
901
900
898
897
897
901
907
918
924
930
927
923
917
915
907
901
897
900
909
912
919
925
923
923
921
922
919
912
906
901
893
892
888
883
883
878
875
875
869
867
864
862
868
870
871
873
871
873
874
874
876
878
874
873
874
875
876
871
870
872
869
866
864
865
868
872
874
872
872
871
878
882
896
917
941
970
997
1015
1022
1016
1014
1019
1035
1057
1086
1110
1122
1108
1065
992
909
830
768
732
714
702
691
684
676
672
664
659
661
659
661
662
665
670
675
687
701
726
757
786
819
842
855
860
858
853
852
851
850
852
853
858
862
863
863
864
863
865
864
862
859
855
855
859
858
856
855
851
847
846
847
845
840
839
837
833
834
835
832
832
829
827
824
818
815
815
814
808
813
812
813
815
809
812
810
808
806
808
807
808
808
811
812
817
817
821
819
819
825
830
833
834
835
843
843
850
853
857
861
862
858
861
859
863
863
865
867
869
870
872
871
874
871
872
872
877
877
877
878
879
878
879
877
874
874
868
872
874
872
876
878
883
881
880
874
870
867
867
868
869
872
875
877
878
876
875
869
866
863
860
863
867
869
871
864
865
865
865
864
865
863
863
865
864
864
867
870
872
871
871
870
866
865
866
868
874
873
877
875
878
878
877
873
875
870
868
874
874
877
877
877
879
879
877
878
880
878
881
888
889
893
898
898
899
896
901
900
903
898
902
900
899
899
898
896
898
901
908
910
910
902
896
889
885
884
882
882
883
880
877
871
863
859
856
852
851
855
858
864
867
865
865
862
856
850
849
843
842
843
848
856
859
865
866
863
860
857
857
856
860
862
861
855
847
843
844
858
882
906
934
960
970
970
966
966
977
1008
1044
1088
1115
1116
1083
1020
938
857
790
751
726
710
698
683
669
658
648
644
645
652
658
663
666
669
676
686
701
716
737
756
789
814
832
839
842
844
845
847
849
850
853
848
848
846
850
850
851
852
850
841
840
842
840
846
848
848
850
849
848
846
841
834
829
826
825
823
824
821
818
818
821
822
822
819
812
809
805
802
802
803
808
811
815
811
809
803
799
792
793
794
800
802
803
803
804
805
812
814
820
821
824
819
818
817
826
834
843
849
851
850
850
850
848
845
846
847
853
855
862
865
872
871
868
869
866
866
862
865
867
873
877
875
875
869
865
863
859
860
860
862
865
866
862
867
870
872
868
861
860
856
856
852
854
855
856
856
853
852
851
850
848
848
847
851
854
859
859
862
860
858
856
853
848
851
851
850
859
861
863
862
857
854
851
850
851
855
856
858
860
863
868
869
870
866
860
858
852
852
855
856
862
863
864
866
864
865
866
869
869
873
874
879
884
891
890
889
891
890
892
893
895
897
900
898
896
893
885
877
877
876
880
884
886
888
887
889
886
883
881
874
869
866
865
860
856
848
847
844
846
843
844
843
845
848
845
846
845
844
844
843
841
838
838
837
839
841
843
843
839
838
837
840
844
851
850
844
839
829
823
821
826
833
851
872
899
924
942
951
950
943
941
957
985
1024
1067
1099
1108
1085
1025
937
845
766
714
686
665
653
646
638
629
625
626
625
628
631
633
630
630
633
643
659
686
715
748
770
792
806
813
817
819
819
819
823
825
828
831
836
834
829
829
828
826
822
821
828
830
831
831
832
831
825
821
818
813
811
814
811
810
814
812
811
808
805
802
798
795
792
792
787
788
787
786
790
790
786
783
780
777
777
774
774
779
781
785
785
785
785
786
786
789
788
790
792
799
802
803
810
811
811
814
816
822
827
827
831
833
835
837
837
841
843
840
841
842
839
841
844
845
846
852
853
849
847
843
840
839
839
841
844
845
847
841
841
841
842
843
840
838
833
835
837
838
840
839
840
842
842
836
835
836
834
835
837
836
837
842
840
841
837
838
832
831
830
829
832
838
838
837
841
837
841
836
840
840
839
837
839
842
843
848
855
858
859
857
854
848
843
844
843
847
849
849
848
846
841
834
830
829
828
831
832
834
835
838
838
836
835
834
836
834
836
836
841
845
847
853
860
867
872
872
874
873
869
865
864
860
858
859
861
863
864
868
867
868
864
863
857
856
850
842
837
832
833
830
828
824
822
821
820
821
824
823
824
822
824
820
818
816
817
817
820
820
821
821
819
813
816
814
816
816
816
817
820
821
821
820
819
814
810
809
809
821
839
865
894
925
950
968
965
960
959
965
987
1018
1045
1055
1035
974
887
793
712
652
620
604
597
595
588
586
581
581
585
586
587
588
590
595
599
614
630
652
682
712
738
761
774
785
789
788
790
789
789
794
797
802
806
808
807
806
802
800
798
798
797
796
797
799
801
802
799
798
793
792
788
783
782
776
776
782
781
782
781
778
772
768
765
759
757
758
756
755
754
761
759
757
758
758
759
756
756
755
755
755
756
762
765
766
770
767
769
766
771
775
783
789
793
797
800
802
803
805
806
805
807
806
811
814
821
821
822
822
820
820
817
820
820
822
821
822
823
826
827
824
824
826
823
823
820
819
819
821
821
824
824
821
818
814
809
812
813
816
820
820
822
819
817
815
815
812
815
816
815
816
818
818
817
819
816
818
815
814
812
808
808
811
815
816
819
821
818
817
813
812
814
815
814
812
812
813
815
819
819
819
821
822
818
815
813
812
811
813
820
819
819
821
818
817
814
815
814
814
816
821
823
829
828
828
830
828
828
829
830
830
832
841
847
852
858
859
858
849
842
836
829
825
826
836
842
848
854
857
858
851
839
833
822
816
814
814
816
817
817
815
813
809
806
805
804
801
803
802
802
803
803
803
799
802
799
803
802
802
801
802
801
806
807
805
804
804
801
800
800
797
798
799
798
802
804
816
835
862
890
921
938
941
945
943
956
982
1008
1033
1047
1032
986
908
814
728
680
648
639
638
634
625
616
610
608
600
584
566
562
569
585
609
628
652
678
697
713
722
738
761
776
788
790
791
785
777
775
776
779
785
786
783
770
766
770
784
792
797
795
795
790
787
786
775
771
773
781
789
791
788
772
755
743
743
746
751
757
763
766
772
771
761
748
733
724
732
739
748
750
746
731
716
706
710
724
744
756
758
749
740
740
746
758
774
786
784
778
760
750
753
758
771
781
784
784
785
793
793
791
785
774
770
763
770
779
796
808
826
837
842
842
828
805
784
780
786
800
816
825
832
825
811
796
785
782
790
803
814
819
822
817
813
804
790
779
769
776
786
794
795
786
783
786
797
802
799
798
794
786
783
780
786
795
797
793
787
780
778
782
785
789
790
793
794
791
789
783
785
788
793
794
794
792
790
793
795
801
805
806
802
790
786
788
790
797
803
806
807
800
798
797
799
803
812
815
812
809
800
798
802
806
809
812
815
820
826
829
823
820
812
805
807
807
806
807
809
813
816
819
819
820
821
813
809
800
795
792
789
788
789
787
781
773
767
765
766
769
774
775
771
766
759
756
756
764
768
770
772
768
762
755
755
758
761
763
765
764
762
757
761
762
762
763
767
767
762
759
754
751
765
778
801
829
862
888
908
913
914
912
917
933
962
990
1006
1003
972
920
849
773
707
653
620
603
595
587
581
572
566
559
553
550
553
553
557
553
554
556
570
590
617
647
681
702
717
721
721
715
712
711
716
719
727
728
731
732
728
727
725
723
721
722
722
729
730
731
732
734
735
738
737
732
722
709
700
699
704
712
718
718
710
706
697
692
694
692
691
693
689
689
687
684
685
684
686
686
683
679
679
683
687
694
692
689
688
689
687
688
686
687
685
685
694
704
716
720
719
711
704
700
703
710
719
728
730
733
728
729
727
727
728
733
739
746
749
749
748
744
744
741
743
750
743
743
740
739
740
743
750
755
758
755
749
743
746
745
743
744
742
736
732
731
735
747
749
752
751
751
747
741
736
735
737
742
747
745
745
742
741
740
736
738
739
746
750
751
747
747
742
741
743
745
748
746
746
747
748
748
746
743
741
739
739
737
737
740
746
751
753
752
756
756
754
753
749
745
746
741
746
751
760
766
770
774
771
765
761
764
765
764
771
778
784
785
784
787
786
783
777
776
775
777
780
781
787
792
799
800
800
793
783
772
762
757
760
767
769
769
771
763
754
747
740
737
736
744
751
756
755
753
752
749
755
761
763
760
758
756
755
753
752
756
758
759
762
765
761
756
750
745
740
740
746
762
789
822
851
874
903
917
922
916
911
914
932
960
991
1020
1020
991
936
856
770
697
649
626
618
614
604
590
577
564
560
561
558
557
552
553
555
560
574
590
616
634
660
686
707
721
735
740
741
739
741
748
757
767
769
766
762
759
753
756
757
758
759
755
757
760
761
762
763
761
764
757
752
746
745
748
746
741
739
737
734
733
731
730
733
732
732
727
722
721
718
720
728
732
731
734
730
725
722
720
720
724
726
726
725
728
725
732
736
738
739
747
750
751
747
748
753
757
762
773
779
776
779
779
781
784
786
789
788
789
789
791
792
796
797
792
796
798
802
803
800
798
794
794
796
799
801
800
802
801
801
802
799
797
794
795
800
798
806
809
808
804
801
793
790
789
793
793
798
795
796
799
797
794
794
794
792
793
793
793
796
796
798
802
800
800
799
798
799
795
795
797
800
803
805
808
810
807
805
802
800
801
799
802
802
805
805
805
803
800
801
801
805
807
808
811
816
818
823
828
827
826
823
828
830
833
837
840
844
843
839
837
834
830
824
821
821
827
833
839
842
845
842
836
832
824
818
812
804
803
799
796
799
795
799
798
795
793
792
789
792
792
790
793
792
793
796
795
795
794
791
791
790
790
791
790
795
796
799
801
798
794
788
783
782
783
793
808
832
858
894
921
942
947
943
941
947
966
995
1031
1053
1053
1027
956
869
780
712
664
642
626
614
608
604
598
596
593
590
591
585
588
588
591
601
618
639
666
697
727
747
765
773
771
771
772
773
775
780
786
791
792
789
785
783
778
775
775
776
778
783
782
785
786
784
779
777
773
766
768
768
765
766
767
769
766
765
763
760
758
752
747
748
745
747
746
746
745
747
744
744
740
738
734
738
740
744
744
746
744
747
749
746
747
752
752
753
756
761
765
771
778
777
778
777
780
784
787
788
794
798
801
805
808
812
813
810
810
808
808
807
809
812
812
812
816
816
814
813
811
809
807
812
812
811
813
816
817
819
820
812
811
807
808
805
809
813
813
817
815
814
816
814
809
809
807
805
808
807
812
814
813
813
813
813
812
810
806
803
807
810
810
816
813
814
815
812
816
811
811
812
814
813
814
819
818
819
819
817
815
814
812
812
815
820
822
824
827
825
827
831
830
831
832
830
833
831
838
843
847
851
855
855
852
847
844
841
838
839
839
843
846
851
856
857
854
850
842
835
828
827
822
822
823
821
816
814
811
806
801
802
798
805
807
806
810
809
805
804
802
800
800
802
802
803
807
810
810
808
810
808
810
807
805
807
807
807
808
807
804
802
803
805
811
826
850
883
909
936
955
957
954
952
961
978
1004
1041
1071
1085
1074
1033
968
892
817
760
720
696
679
667
653
641
631
624
617
618
615
612
608
609
608
611
617
623
640
664
690
715
743
760
773
781
782
781
780
778
781
787
790
796
798
796
793
791
787
787
785
785
788
789
789
790
792
789
786
789
786
785
781
781
779
775
772
773
772
772
770
765
763
757
759
757
754
756
755
756
754
751
751
751
751
747
744
744
745
745
746
747
749
750
746
748
748
748
749
754
759
762
767
771
774
773
776
780
780
782
784
785
787
794
800
803
808
812
814
812
812
813
814
815
817
818
817
817
822
820
822
823
818
820
819
820
820
821
821
821
824
825
821
820
819
818
816
815
818
819
822
822
823
821
818
817
815
813
808
807
808
810
811
816
811
812
809
812
812
809
807
810
810
813
808
813
815
814
813
814
813
814
812
812
810
811
813
817
820
818
814
814
814
814
814
813
816
817
817
820
822
825
827
828
827
828
829
829
834
837
837
840
843
842
844
847
850
852
853
857
856
857
858
855
852
849
845
843
844
847
850
856
856
860
857
851
847
837
831
828
824
821
819
817
812
812
812
811
812
810
811
810
807
804
805
805
807
810
811
813
813
812
811
810
807
806
808
807
810
810
812
814
818
814
812
804
800
801
799
803
817
842
865
893
920
939
945
947
949
954
972
1007
1046
1088
1114
1115
1081
1012
928
849
781
736
711
696
685
672
662
648
640
635
629
626
626
624
622
627
633
643
661
683
709
735
759
777
791
801
805
806
808
811
815
817
823
822
822
824
827
825
822
824
824
823
820
824
824
823
816
819
814
813
808
805
808
806
806
803
805
800
798
792
790
789
786
785
782
786
786
787
785
785
782
782
779
778
777
774
773
776
777
781
785
784
783
782
781
781
784
787
791
794
800
804
809
812
815
820
818
821
819
821
824
831
835
837
841
842
845
846
845
843
843
845
848
849
852
855
854
855
855
852
852
850
848
849
851
852
851
853
856
856
854
853
848
849
847
845
848
846
847
848
848
848
849
846
847
843
843
843
843
842
845
847
851
847
849
845
846
843
843
843
845
844
850
851
853
854
853
851
848
847
845
845
843
844
845
847
848
849
848
847
849
846
850
852
849
850
849
856
857
857
864
864
863
866
865
865
869
871
872
875
879
872
877
881
882
884
886
884
881
880
877
879
878
876
880
882
885
890
891
887
883
877
872
866
862
861
858
853
852
843
840
840
843
843
842
843
840
839
840
842
838
842
838
837
838
838
839
837
838
837
837
834
836
835
838
834
829
831
833
837
838
838
836
836
833
834
838
854
871
903
935
963
984
993
990
984
981
988
1005
1037
1073
1100
1105
1082
1019
932
845
768
719
689
673
662
653
646
638
634
633
628
626
622
618
618
618
623
632
648
669
695
723
750
773
790
805
812
814
812
812
814
816
821
824
824
824
825
824
823
822
819
818
820
824
824
824
823
821
818
811
811
809
804
804
802
798
801
802
799
796
794
790
787
787
787
784
783
783
779
782
781
777
778
774
774
769
770
772
773
775
776
782
779
782
780
782
780
784
783
785
789
795
797
809
811
812
813
816
814
817
819
819
824
830
832
839
840
840
840
840
840
839
841
838
840
843
848
852
850
850
849
850
850
847
846
846
849
853
856
857
853
853
847
847
845
847
847
848
850
850
851
854
849
849
846
847
842
841
841
839
845
849
849
851
851
849
846
847
843
845
842
842
844
846
849
851
851
851
850
848
849
846
843
845
848
851
852
853
852
850
847
847
846
850
848
851
853
856
855
855
855
854
857
856
857
857
859
859
865
869
872
876
874
875
875
874
875
880
884
889
891
889
889
888
881
875
870
869
875
878
880
888
892
893
891
887
879
873
866
860
860
857
852
850
850
847
844
844
848
847
849
847
846
841
836
836
838
839
840
843
842
844
846
844
839
837
837
838
838
841
840
843
844
841
838
834
832
830
835
849
872
900
935
966
981
987
986
977
981
994
1021
1060
1095
1121
1121
1092
1027
942
860
797
752
727
710
700
687
675
664
654
647
641
637
632
633
629
630
636
649
665
684
716
741
771
793
806
813
820
816
818
821
824
829
831
832
829
829
829
829
829
827
825
827
830
829
832
829
828
826
824
818
815
816
812
814
816
813
814
810
803
799
794
793
792
792
789
790
792
792
793
793
785
787
782
780
778
774
779
780
781
782
787
784
781
784
783
782
786
785
788
794
798
801
805
805
805
812
816
817
820
821
822
831
833
839
842
843
844
844
844
844
845
846
849
852
855
858
860
858
859
857
856
855
854
853
855
856
853
855
856
856
858
861
857
856
858
854
851
854
855
857
857
857
860
857
852
851
846
845
847
848
851
853
855
855
851
848
844
846
844
842
843
847
846
848
852
856
856
852
852
845
845
843
846
847
850
851
850
853
853
854
852
853
854
850
850
848
851
851
855
851
854
855
856
851
856
862
862
865
867
871
873
874
875
876
876
875
879
881
884
890
896
895
897
898
891
886
881
875
875
875
876
881
888
893
896
897
892
887
875
868
857
856
855
857
855
857
855
854
852
847
845
843
842
841
841
842
845
846
848
846
847
845
841
839
839
838
837
841
842
844
843
844
845
843
842
839
841
840
839
838
836
833
832
827
833
843
860
883
910
931
953
965
970
965
967
980
1007
1046
1088
1116
1128
1111
1054
971
886
811
758
727
705
688
675
657
644
633
624
625
623
625
626
626
628
630
642
655
675
704
735
763
785
799
812
818
819
817
822
823
826
826
823
828
829
834
836
835
833
833
830
832
826
824
825
824
822
823
822
820
821
819
814
811
807
802
802
800
801
803
802
800
799
798
790
786
784
783
787
789
789
786
788
785
786
782
783
782
781
785
788
791
792
793
795
798
801
802
800
798
805
807
810
817
824
828
832
836
835
834
838
840
840
842
843
844
849
854
856
859
861
860
857
856
857
859
859
859
862
863
864
864
865
860
860
858
858
857
857
856
858
858
858
859
859
855
853
853
852
852
852
850
852
852
852
853
855
853
854
852
848
849
849
852
855
853
859
858
856
853
851
849
847
845
846
845
850
855
858
856
855
856
853
854
852
854
851
854
856
857
853
851
855
858
856
856
857
857
858
859
860
863
863
866
871
872
877
876
873
875
878
881
883
891
898
900
900
897
893
889
881
877
877
876
879
887
893
899
903
902
892
888
877
872
868
863
863
863
865
860
856
852
849
845
845
845
844
845
847
848
850
847
848
846
845
841
842
844
843
845
844
847
851
850
847
844
846
841
842
842
838
842
840
841
842
846
855
873
894
928
955
977
988
994
987
990
1002
1025
1059
1096
1126
1134
1117
1062
980
890
809
749
704
680
667
652
642
631
620
612
609
609
609
610
610
613
619
630
641
658
684
713
744
770
789
805
816
819
822
822
824
824
823
824
824
825
829
832
836
838
834
834
833
829
827
823
825
824
825
824
828
825
819
817
812
809
806
804
801
802
800
803
803
806
802
799
791
788
785
783
780
783
784
786
788
789
789
785
780
782
779
778
778
779
784
789
794
795
794
793
793
797
797
803
808
813
823
827
832
833
837
837
837
842
843
842
844
846
850
853
853
852
858
860
858
859
861
861
856
858
859
861
864
867
865
863
863
858
859
857
856
858
859
860
863
862
860
859
858
859
856
854
852
853
856
856
854
855
855
854
851
851
849
850
850
848
851
851
854
856
853
854
853
850
849
850
851
853
854
855
857
857
856
852
854
853
853
852
856
855
855
856
860
861
861
860
858
855
857
856
857
857
856
858
860
863
862
860
859
859
857
856
861
863
869
869
872
875
876
878
879
875
875
877
881
882
889
894
900
900
902
898
893
886
879
873
873
873
879
887
897
903
906
903
899
889
882
872
869
868
866
864
865
862
857
855
849
849
850
850
847
849
849
854
854
852
851
851
849
844
841
840
842
846
848
847
850
851
851
849
851
846
849
847
846
847
847
841
840
841
840
843
849
865
890
916
946
976
999
1006
1006
1002
1006
1023
1055
1093
1124
1137
1119
1064
988
897
817
758
719
691
673
655
644
634
629
621
623
617
620
620
622
626
638
654
673
700
732
762
786
803
813
824
824
827
825
825
827
830
833
838
841
841
841
841
839
833
834
833
829
828
826
828
828
824
827
824
827
825
820
818
813
812
807
810
807
806
806
807
801
799
796
793
791
788
790
789
787
783
791
789
787
783
784
784
783
780
782
785
788
788
790
795
791
795
794
799
798
795
801
809
816
822
823
828
830
834
836
838
837
841
841
846
848
854
859
859
860
863
863
859
859
856
859
859
861
868
869
869
870
870
866
866
864
862
863
864
863
867
868
868
865
864
865
860
861
861
862
860
862
859
857
862
858
858
853
852
852
853
852
857
855
861
860
862
858
858
859
857
855
854
854
855
860
863
864
864
864
862
861
855
857
855
857
856
859
862
863
859
860
861
859
861
860
854
855
857
858
863
863
864
866
866
863
864
864
868
868
870
878
880
883
885
886
886
887
884
885
893
896
900
905
908
902
904
898
893
887
884
879
878
880
889
897
905
911
906
900
893
880
876
870
862
862
863
864
860
860
860
855
853
853
852
851
846
846
847
848
850
851
848
851
848
846
842
844
842
845
845
847
848
849
850
851
849
847
846
844
843
843
841
844
845
843
839
839
839
848
862
890
918
948
973
988
988
991
994
1011
1040
1083
1120
1143
1136
1093
1018
928
841
773
735
708
692
673
658
646
629
619
615
616
618
619
618
621
618
623
625
632
644
666
699
730
759
783
803
817
823
824
825
830
831
832
832
835
843
839
841
842
842
839
840
835
834
833
831
838
839
838
841
838
834
829
828
824
820
817
817
818
817
818
819
814
812
810
805
801
800
797
795
797
796
794
792
792
793
792
789
789
786
785
785
788
791
793
796
798
796
798
799
798
798
804
806
812
817
820
824
828
830
829
832
833
838
841
845
850
853
856
854
858
858
859
857
859
859
863
866
864
869
871
872
871
870
867
864
863
862
863
864
867
866
865
866
867
868
864
859
861
856
858
857
859
858
861
863
862
859
856
854
849
847
852
855
856
856
858
861
862
860
860
854
854
854
853
855
854
856
863
860
861
858
858
857
854
855
855
855
858
857
856
858
856
856
858
857
856
856
854
860
860
862
862
864
865
865
862
862
860
855
858
859
861
865
867
873
873
876
874
878
878
877
880
880
884
889
896
903
906
906
902
897
892
886
881
880
880
884
889
894
898
903
902
891
884
875
866
860
860
860
860
860
857
855
850
846
844
840
840
840
839
838
841
842
842
842
841
836
839
837
837
837
838
843
845
847
844
842
838
838
839
838
837
833
834
839
838
838
840
845
862
886
913
944
967
979
986
985
991
1011
1046
1088
1124
1142
1126
1071
984
881
789
724
683
659
646
637
626
612
603
596
591
593
592
591
593
598
609
620
632
651
680
708
742
768
793
805
815
818
821
821
824
822
823
824
825
824
827
827
830
826
826
826
821
824
824
823
818
819
819
818
821
817
818
813
814
809
807
804
800
799
797
796
795
796
799
797
794
789
784
781
779
778
782
780
778
778
777
775
777
774
773
771
770
775
778
781
784
790
791
793
795
796
796
797
800
806
811
815
820
828
832
834
836
835
834
838
841
844
845
851
851
852
855
855
852
848
848
849
852
853
857
858
858
858
859
857
854
851
849
845
844
846
848
850
851
855
853
851
850
849
847
842
842
841
842
846
844
846
844
845
844
842
837
839
838
841
838
840
839
842
846
846
845
845
844
843
844
843
846
846
848
849
848
847
847
847
844
845
847
844
848
844
844
849
848
849
844
846
845
844
848
849
849
849
851
856
856
854
853
850
847
844
841
843
849
847
852
853
853
854
852
854
855
853
856
859
861
862
872
874
875
875
872
874
873
873
878
886
893
895
896
894
888
882
876
871
869
873
880
886
890
896
896
894
886
876
868
858
853
846
848
847
847
845
846
843
844
841
839
837
835
833
836
839
836
838
839
839
836
835
832
835
828
831
832
834
835
838
840
840
841
839
838
837
837
836
829
829
829
829
832
845
863
889
920
952
981
997
1001
998
998
1005
1027
1059
1099
1130
1141
1107
1033
936
832
750
691
658
641
629
622
614
608
603
596
591
588
589
592
596
609
624
642
667
695
719
743
763
781
794
798
803
804
805
809
814
813
813
813
817
814
816
817
818
816
816
813
817
815
814
809
810
808
808
804
804
805
805
802
800
792
791
786
784
783
780
782
783
783
775
780
778
774
771
768
765
761
762
764
763
763
764
765
766
764
765
766
765
767
765
774
775
777
783
786
788
794
796
796
801
806
807
815
818
823
827
829
831
831
832
834
835
834
836
840
839
844
848
847
849
849
848
847
844
846
847
846
848
852
852
855
853
852
852
851
847
843
845
844
847
848
850
849
849
847
848
847
844
841
841
839
842
842
846
846
844
844
841
841
841
841
841
842
844
842
846
843
843
841
842
845
842
841
843
847
845
848
848
846
844
847
842
839
842
841
840
845
847
849
854
854
852
851
849
848
848
846
848
849
849
853
854
854
852
854
848
847
849
851
852
859
864
866
868
872
873
875
871
873
871
873
880
888
891
897
900
900
894
887
883
877
876
873
875
881
891
898
901
901
895
886
876
867
860
852
851
852
852
851
852
850
844
844
841
838
837
839
837
840
837
840
843
840
845
842
839
837
839
835
834
834
834
837
839
841
841
841
844
842
835
835
836
836
834
834
834
833
835
842
860
882
915
944
971
989
993
989
992
1003
1030
1072
1114
1143
1144
1104
1030
935
844
769
723
693
673
661
641
628
618
603
595
593
597
595
602
600
602
603
610
618
628
651
678
707
738
765
787
796
807
811
813
816
816
819
823
827
830
834
837
834
832
831
826
823
825
824
824
827
826
827
828
829
824
820
820
815
814
810
812
812
811
811
811
804
802
802
798
790
789
783
783
783
785
784
785
783
780
780
779
779
775
776
773
777
779
780
783
781
784
782
783
782
787
789
792
796
801
808
814
816
817
822
827
830
832
833
834
840
846
850
854
853
853
858
857
856
856
854
856
858
861
863
866
871
864
863
859
856
859
857
858
861
860
863
865
864
864
861
858
855
857
852
852
858
857
855
858
857
855
856
853
852
851
851
849
851
854
852
855
854
853
852
851
849
850
851
849
853
854
853
857
857
858
856
853
853
852
852
851
855
854
855
858
857
857
856
854
853
854
854
853
854
856
859
862
857
859
858
854
853
855
854
855
859
861
864
868
870
872
874
874
873
873
875
876
881
885
887
891
894
900
906
907
911
908
901
895
891
887
888
889
895
898
901
905
904
901
892
889
882
875
869
867
867
865
862
859
852
853
849
849
845
850
852
851
850
851
850
848
848
848
847
844
846
849
849
848
847
851
846
845
848
845
847
848
846
845
845
849
847
843
840
838
838
851
870
896
934
967
994
1008
1004
1007
1021
1052
1097
1142
1162
1139
1075
974
871
785
722
684
666
651
638
625
610
600
596
594
596
598
597
597
599
605
612
628
650
678
712
745
771
795
808
815
820
820
820
823
825
830
835
836
838
839
837
839
838
836
833
836
832
834
835
832
835
837
837
838
833
829
824
819
817
814
816
817
815
816
811
808
805
801
799
793
793
787
790
788
791
794
792
792
791
787
785
785
783
780
786
790
789
794
790
791
794
799
802
806
808
810
814
820
821
825
834
837
839
843
844
849
848
850
853
856
857
862
864
866
867
867
865
869
867
866
869
871
871
873
875
874
872
869
868
867
862
865
865
865
866
865
868
864
866
863
862
861
861
858
859
857
859
861
858
860
859
857
854
854
853
851
854
856
860
863
860
858
859
855
853
849
850
848
851
857
858
864
864
863
862
858
858
853
850
855
858
862
861
860
860
861
862
859
858
855
854
853
851
856
856
861
861
858
860
858
859
858
859
857
860
863
863
868
864
865
865
860
867
867
867
873
876
882
886
887
887
890
888
886
888
891
896
902
903
907
906
910
903
899
894
891
888
886
888
892
897
906
911
915
910
900
892
885
877
872
867
863
867
865
864
860
857
857
854
853
852
849
847
850
850
853
852
855
855
855
853
849
847
844
844
845
845
848
852
850
850
852
851
848
849
848
846
845
846
843
842
845
851
863
886
914
949
983
1010
1027
1031
1024
1024
1029
1053
1088
1125
1158
1167
1140
1079
982
878
788
720
678
653
638
628
615
604
596
588
587
583
586
584
591
594
598
605
616
635
662
692
724
753
779
797
810
816
816
818
816
819
819
820
821
827
829
831
833
831
830
830
827
829
822
824
819
820
819
821
821
817
814
810
809
802
802
800
798
796
792
792
793
791
789
784
783
784
775
776
775
775
777
772
776
777
776
776
771
771
771
772
775
779
780
782
786
789
791
792
791
795
796
797
802
808
811
817
823
827
834
835
833
839
836
839
841
846
848
853
854
857
857
858
852
852
850
853
855
853
858
858
859
858
855
856
854
854
850
849
851
852
853
852
855
855
855
855
853
850
845
845
847
849
849
851
853
852
849
848
847
844
843
843
841
845
846
851
848
849
851
846
845
845
847
846
848
848
852
853
854
850
852
851
850
848
849
850
850
852
853
854
855
853
855
854
850
850
850
854
853
853
853
852
855
854
855
853
853
852
850
851
850
854
854
858
856
850
843
837
824
814
811
811
822
840
862
885
911
934
953
970
989
1013
1044
1083
1118
1153
1175
1185
1189
1187
1181
1174
1163
1150
1131
1114
1099
1087
1072
1062
1040
1006
960
904
849
795
750
719
707
719
746
780
809
837
862
887
904
922
929
931
928
920
907
895
873
846
813
785
758
745
743
739
749
752
756
758
755
750
745
743
736
731
727
727
722
721
721
716
716
712
707
704
697
693
687
686
682
677
680
680
677
670
669
671
666
659
656
655
653
654
655
653
658
661
660
662
657
655
657
660
657
663
664
671
672
676
675
681
684
686
686
685
690
697
702
706
715
717
721
723
727
725
724
728
732
739
746
749
754
759
763
768
771
773
774
780
781
785
789
792
798
801
806
808
811
817
819
822
825
827
831
835
839
841
845
844
843
846
844
843
847
847
850
852
855
852
854
855
854
852
852
851
854
855
859
859
863
865
864
859
859
859
859
855
854
855
858
860
862
864
863
864
863
859
859
858
857
861
860
861
861
863
864
861
860
861
861
857
858
863
865
866
867
866
869
863
863
862
860
860
862
866
869
870
873
871
866
872
869
870
867
868
866
865
867
868
870
871
871
872
872
869
868
868
869
870
871
870
871
873
872
871
873
869
869
867
868
870
874
873
875
872
874
872
869
870
868
867
870
869
872
875
875
878
879
881
879
883
881
883
887
890
891
894
896
900
901
903
908
913
913
913
915
915
913
908
905
903
898
895
899
902
905
913
916
916
909
903
899
889
881
878
873
865
859
856
859
858
858
858
859
857
859
858
854
852
849
846
848
848
851
851
856
857
854
853
852
851
847
852
848
848
850
850
855
855
851
850
845
840
838
836
849
873
898
932
965
995
1007
1013
1004
1003
1019
1053
1099
1145
1175
1173
1129
1043
936
833
754
701
670
652
641
625
611
602
591
586
581
582
584
584
588
594
611
632
661
697
727
759
782
799
810
814
817
818
821
827
832
835
836
840
840
839
836
835
831
828
832
831
832
827
832
831
825
829
822
822
819
814
813
813
809
810
810
808
805
802
800
797
793
790
782
784
783
784
785
786
780
780
776
777
776
772
773
776
778
782
782
788
789
787
784
786
786
786
790
794
800
806
811
817
819
823
825
824
823
830
832
840
839
846
848
854
853
858
857
857
858
857
858
859
863
861
870
868
865
869
868
865
861
861
860
859
860
861
863
864
862
860
860
852
852
849
848
848
852
855
854
857
855
854
851
848
847
845
842
844
846
843
846
847
846
845
845
846
841
842
841
844
842
843
842
849
848
849
845
845
840
839
844
844
846
844
846
851
848
849
846
847
844
843
846
847
847
849
851
854
853
852
849
847
846
849
849
850
851
852
853
856
855
854
854
855
851
852
856
860
866
871
875
876
875
879
879
880
883
885
892
899
905
908
903
898
893
885
878
873
873
873
881
887
895
902
903
902
894
886
876
866
860
854
850
853
846
846
844
844
843
841
842
839
833
834
834
839
839
840
846
846
843
837
839
839
836
832
835
836
840
843
845
844
845
846
846
843
834
834
831
829
832
837
845
864
890
924
954
983
1005
1014
1014
1009
1016
1037
1074
1116
1152
1165
1137
1069
967
852
755
685
644
620
604
592
579
572
566
564
562
558
556
560
564
571
583
596
619
646
679
711
741
764
784
797
807
811
814
819
817
822
823
823
824
825
824
826
828
827
828
822
824
825
820
818
821
819
816
817
816
816
814
811
808
807
801
798
795
795
790
794
790
790
790
791
786
785
775
774
770
765
764
764
768
772
774
774
770
768
767
765
763
764
771
773
778
780
781
787
790
797
795
798
801
804
809
818
818
826
831
836
838
839
841
841
840
842
840
843
847
851
854
855
856
856
849
851
850
850
849
850
853
854
855
855
855
854
852
852
850
848
847
844
848
847
848
850
848
848
847
845
845
842
838
841
844
846
846
847
844
846
844
843
842
840
842
844
845
847
851
851
852
849
847
845
844
844
842
844
847
846
849
851
852
850
850
850
850
845
844
843
846
847
848
852
852
848
852
851
849
848
843
849
849
851
853
852
857
856
854
853
850
850
852
852
856
860
863
866
869
870
869
872
870
873
873
874
876
883
889
895
900
905
900
898
893
888
883
880
879
879
883
892
897
901
899
899
894
886
878
868
861
860
859
859
857
852
849
845
843
839
834
835
837
839
838
841
842
839
840
842
838
836
832
836
833
836
839
839
841
840
842
839
836
836
831
836
836
840
838
838
835
833
835
841
856
879
916
954
987
1011
1017
1021
1022
1041
1075
1114
1152
1163
1139
1072
977
876
788
725
682
651
628
613
596
584
577
571
568
569
572
572
577
583
592
605
628
661
693
726
757
780
798
807
811
812
813
809
811
814
815
817
818
823
826
826
822
823
824
820
820
815
817
816
814
817
816
814
812
810
810
803
801
795
791
791
792
789
789
788
783
783
780
776
769
766
764
764
762
761
762
764
762
763
761
760
759
758
758
759
762
763
769
768
778
781
782
783
788
790
794
795
803
809
812
813
818
821
824
825
830
832
832
834
838
840
845
846
847
849
849
843
842
844
842
846
853
852
853
855
855
854
853
846
847
848
847
846
847
849
850
854
849
845
848
844
840
843
841
840
842
841
842
843
843
841
843
839
838
840
837
836
837
838
838
841
843
840
844
840
839
838
837
839
839
843
845
845
846
845
845
845
843
841
840
843
843
842
846
848
849
846
851
844
848
845
844
845
846
848
850
851
848
849
849
847
844
849
845
849
852
856
860
863
863
863
866
869
870
872
873
872
879
884
894
901
904
901
899
891
889
884
878
875
875
878
886
893
897
901
898
894
884
875
862
858
853
851
849
850
844
843
842
840
836
832
828
826
829
830
829
834
834
835
833
834
831
828
826
824
826
830
831
833
833
832
832
828
829
831
830
830
834
833
831
833
829
823
823
821
832
851
876
909
945
971
992
999
998
994
1002
1025
1063
1110
1149
1169
1154
1093
1002
895
795
713
663
627
611
596
581
568
563
561
558
558
559
559
563
569
576
591
610
636
666
699
727
754
776
788
796
800
799
802
802
806
811
816
819
818
822
820
823
821
820
819
817
814
814
816
820
821
817
819
815
811
809
805
800
799
801
800
799
795
790
788
787
783
778
780
774
771
774
772
769
771
768
769
764
763
758
758
755
758
761
764
763
762
765
768
767
771
770
775
779
784
787
790
798
800
802
803
808
812
811
814
815
818
823
828
833
835
838
836
839
839
841
840
838
840
844
839
845
847
843
842
844
844
842
840
839
845
844
845
846
848
845
847
843
840
841
838
838
837
839
841
841
842
838
837
835
836
833
833
830
830
833
836
835
838
837
836
837
837
833
833
835
835
834
837
834
838
842
839
840
840
835
833
833
836
834
837
836
840
839
838
839
838
835
837
836
834
837
841
839
843
845
845
840
840
840
835
837
838
842
847
850
850
854
858
860
860
863
863
866
866
869
873
877
886
894
895
896
896
891
889
883
874
872
868
868
875
883
889
893
895
893
886
873
865
855
853
853
852
851
848
845
841
836
829
826
825
825
829
831
836
834
834
830
824
822
821
821
819
826
826
829
831
829
826
823
826
822
826
823
826
826
829
829
829
832
827
824
821
816
817
829
845
874
909
945
979
1000
1005
1003
1001
1009
1038
1081
1128
1160
1159
1110
1021
906
796
711
652
618
596
579
568
561
552
550
545
546
544
543
542
544
547
557
572
589
617
652
689
720
745
763
780
787
788
788
790
799
801
806
808
809
811
813
813
814
809
811
812
811
814
810
811
809
806
803
798
796
793
796
792
791
791
786
785
782
780
773
768
766
763
759
760
758
760
761
761
758
751
750
750
748
746
747
745
748
748
749
748
751
750
753
754
754
754
755
758
762
770
772
779
782
786
790
792
795
795
799
803
803
809
818
820
822
824
824
823
824
828
829
829
831
833
835
839
837
835
835
831
829
829
829
833
832
834
834
835
835
831
831
830
829
824
821
822
824
824
826
828
828
826
825
820
820
823
820
818
820
821
819
819
823
820
822
820
821
821
818
818
818
820
820
826
827
826
826
825
823
822
820
822
821
827
830
830
829
829
826
826
827
822
824
824
825
828
829
826
828
832
830
827
823
825
825
826
826
829
830
831
834
835
836
835
835
832
835
837
841
842
847
851
854
855
857
856
854
853
855
863
872
880
882
887
879
877
868
860
856
850
854
860
865
875
881
884
881
876
868
857
846
838
831
829
825
828
826
825
823
821
820
816
820
815
815
815
815
817
816
820
820
819
821
814
812
811
812
813
817
817
818
819
819
818
820
814
814
810
804
805
808
811
820
841
870
910
949
981
1001
1002
999
1003
1021
1059
1106
1144
1159
1129
1054
954
843
748
680
634
607
593
579
570
563
556
555
546
541
531
523
519
524
536
556
574
601
632
667
699
721
740
748
758
766
776
785
791
792
786
778
775
775
777
782
788
788
787
783
788
791
794
796
793
787
780
775
774
779
775
772
769
768
769
767
762
760
754
750
748
742
743
740
740
741
748
750
746
743
740
740
733
732
733
733
733
737
740
744
746
749
744
740
739
741
751
765
773
783
778
773
768
772
782
793
799
804
810
812
815
816
816
817
815
821
826
830
831
830
828
825
822
819
824
831
838
846
846
842
838
837
837
837
834
833
831
827
821
820
829
839
843
843
838
833
828
829
827
822
820
818
817
820
823
824
828
825
824
821
824
823
823
825
824
821
817
811
813
818
828
842
846
843
840
831
823
816
816
822
823
826
823
828
831
832
834
836
841
839
836
836
836
833
833
834
831
828
829
832
835
834
834
831
830
834
843
846
847
843
839
841
845
851
857
857
860
863
865
865
869
871
875
882
887
890
890
890
887
883
874
870
864
857
862
867
872
881
888
891
888
882
871
863
856
850
844
840
833
828
825
826
827
830
832
836
836
836
832
827
822
818
819
823
826
832
829
828
822
822
824
825
827
827
827
827
825
827
826
824
823
823
826
822
819
815
815
818
827
843
873
907
945
984
1015
1030
1029
1024
1023
1037
1066
1112
1152
1188
1194
1169
1101
1003
888
783
698
649
618
597
585
568
557
545
536
534
530
529
531
529
533
543
555
572
603
642
677
711
732
746
757
764
775
780
789
794
797
793
788
786
784
784
795
804
817
827
826
818
803
790
779
772
772
778
786
789
793
794
793
793
788
782
781
775
775
771
766
763
761
761
758
756
755
755
751
748
744
742
736
737
734
735
733
737
732
734
732
729
728
728
732
736
740
744
744
743
749
749
748
751
748
750
753
760
768
776
781
788
795
794
796
793
791
795
799
804
817
821
827
824
818
817
816
815
818
818
818
814
813
817
823
828
828
820
806
798
793
793
798
807
814
812
812
810
804
803
797
798
797
796
795
788
780
773
775
780
780
782
784
785
784
778
775
766
758
753
754
760
768
773
777
775
779
776
774
774
774
774
772
772
767
767
765
769
771
775
780
778
766
762
760
765
777
788
793
787
776
766
775
780
790
792
790
785
788
789
785
782
776
779
783
789
793
795
801
806
812
818
816
817
818
825
837
846
851
846
833
821
816
812
811
822
840
860
874
873
869
853
833
820
808
805
808
818
818
822
815
807
805
806
808
813
820
825
824
814
802
792
779
779
793
807
824
828
829
822
815
805
796
791
788
786
792
800
807
814
813
808
804
800
795
792
799
816
840
873
908
943
975
992
992
984
978
985
1009
1047
1092
1125
1138
1121
1071
989
897
801
730
679
660
657
663
666
662
657
647
642
638
622
609
605
612
632
651
672
695
718
743
765
782
790
799
802
804
806
815
823
828
833
832
831
826
814
801
792
800
813
831
839
842
841
833
820
808
803
804
805
811
819
823
822
818
809
803
801
804
806
806
800
798
792
789
791
792
792
791
788
789
783
780
777
780
782
787
788
789
783
780
779
782
788
794
798
801
805
805
808
812
814
816
816
822
829
833
841
843
842
846
847
853
856
860
866
872
875
877
876
878
878
879
882
883
884
882
883
882
884
887
887
891
892
895
897
897
899
896
895
894
893
897
898
895
896
893
895
894
898
895
898
898
898
896
897
895
895
897
897
898
899
901
897
895
898
899
897
896
894
896
898
901
904
905
903
897
898
899
898
897
901
903
905
904
905
908
909
902
907
905
903
905
904
903
904
904
908
906
903
906
909
910
907
907
903
906
909
915
916
917
921
920
920
919
923
925
928
929
931
935
942
947
950
948
944
944
938
931
930
928
929
935
939
944
944
948
941
934
922
916
911
908
908
903
907
905
903
902
895
892
889
888
890
889
894
894
897
896
892
892
886
886
888
892
892
892
896
894
893
890
890
887
890
887
885
884
882
880
878
879
880
882
894
915
943
966
992
1007
1013
1012
1010
1017
1033
1065
1101
1137
1151
1137
1083
1004
920
848
801
776
767
761
757
754
744
735
725
719
714
713
711
715
715
722
739
760
785
814
842
861
871
877
879
875
871
869
873
877
875
878
880
880
877
880
882
881
879
879
880
875
874
872
873
869
871
870
871
868
868
862
855
852
846
843
840
844
842
839
840
840
838
835
831
831
828
823
818
816
811
816
819
823
824
823
821
820
817
816
815
814
818
825
828
833
837
839
844
843
842
848
852
856
860
864
869
875
883
885
886
883
890
891
896
898
898
898
902
902
910
909
909
908
910
906
906
905
907
908
914
913
913
911
913
908
908
903
905
907
908
909
914
914
914
914
912
910
906
904
902
902
902
905
906
907
911
908
910
908
905
904
905
906
905
907
907
908
910
911
909
906
904
907
907
906
906
905
907
907
909
907
912
907
905
902
904
906
908
909
912
914
915
917
919
922
920
924
926
926
925
930
934
937
943
946
951
952
952
951
946
942
937
936
935
937
939
942
947
950
951
950
948
940
933
930
927
924
921
916
915
912
906
905
900
897
897
896
896
898
901
898
899
898
896
895
894
894
894
893
897
899
901
900
896
898
892
889
892
891
891
891
893
893
894
889
884
879
878
878
892
907
936
969
997
1018
1030
1029
1027
1031
1044
1070
1107
1136
1154
1150
1113
1057
987
913
856
817
796
783
769
754
744
739
733
731
727
719
715
713
710
711
715
724
737
758
783
813
836
854
869
876
873
870
865
864
866
869
878
883
882
884
882
878
877
876
874
872
872
875
876
874
876
875
872
869
867
861
858
858
857
854
853
851
850
854
849
845
839
838
836
832
832
832
830
833
830
828
824
824
817
819
815
814
814
814
816
818
822
822
822
824
823
825
825
827
829
834
835
842
848
851
851
855
861
863
864
864
872
878
885
889
891
888
890
894
898
900
903
903
906
905
910
911
913
915
913
912
910
909
909
909
910
912
911
914
916
914
912
912
912
911
910
909
906
908
909
911
914
914
912
909
906
901
902
900
899
900
905
906
908
907
906
902
901
900
900
901
900
904
903
908
909
908
905
906
905
900
899
900
897
904
907
911
912
909
909
910
910
909
907
905
905
906
909
910
913
914
918
916
917
918
919
914
921
922
926
930
936
940
941
946
947
951
951
954
952
951
946
944
941
938
936
940
944
951
954
956
956
954
946
940
932
926
919
917
911
910
907
904
900
901
901
901
902
900
902
899
897
896
892
890
892
892
895
894
898
898
898
898
896
897
898
895
897
897
900
898
898
897
892
890
885
884
886
903
927
961
992
1023
1043
1054
1056
1062
1080
1109
1144
1171
1181
1167
1115
1037
954
878
819
778
749
733
723
707
696
691
688
686
682
676
675
677
677
685
698
716
741
770
802
826
845
855
860
865
860
867
864
867
870
871
873
878
885
884
882
879
876
875
872
872
874
874
875
876
878
877
877
878
876
872
868
862
856
856
855
853
856
853
848
840
834
828
824
823
825
827
829
829
825
826
817
818
814
812
809
809
814
817
817
820
824
824
824
827
827
827
829
833
837
842
848
856
861
865
869
872
871
872
873
875
873
878
884
890
894
897
897
891
892
896
893
891
893
894
895
895
895
899
897
895
891
890
890
890
892
891
893
891
891
892
888
888
882
882
881
878
877
878
880
882
882
886
882
877
870
871
869
867
869
871
874
876
879
879
875
878
877
878
875
876
876
870
873
874
875
880
876
877
877
875
874
872
872
871
870
868
867
874
871
879
880
883
885
881
881
881
884
892
897
897
896
891
890
890
895
900
906
908
912
912
912
910
904
902
897
893
892
892
893
897
901
900
904
898
891
882
869
859
853
846
847
845
843
838
838
837
835
832
831
829
821
820
818
814
815
815
817
815
815
814
810
811
810
807
805
804
806
803
806
804
799
796
789
785
778
775
778
788
806
829
859
886
907
925
927
928
932
951
983
1022
1062
1078
1070
1021
941
851
764
695
640
607
580
564
554
545
539
536
530
528
524
523
525
529
538
558
579
606
633
662
684
699
708
715
718
722
723
729
733
734
738
738
740
735
733
733
732
732
732
731
730
729
728
727
725
725
718
716
712
710
708
707
708
706
707
706
703
700
695
692
689
680
681
679
683
684
683
687
684
679
673
670
670
668
670
673
673
677
680
682
685
685
686
686
687
690
694
698
705
707
714
718
723
723
725
729
728
732
731
733
743
742
748
752
751
751
753
750
751
750
750
755
757
762
764
762
757
756
754
756
759
757
754
757
759
759
757
761
757
757
758
755
755
754
750
750
752
754
755
753
749
746
747
748
748
746
746
746
745
748
748
748
749
748
749
747
747
746
748
752
753
754
755
757
756
756
753
751
750
751
748
752
757
757
760
758
761
758
761
759
759
759
760
764
768
771
773
775
780
784
785
785
785
787
793
798
805
810
815
816
814
808
803
797
790
786
785
794
800
807
809
815
812
805
795
786
776
770
765
764
765
764
761
758
757
755
753
752
747
747
749
748
750
752
755
756
753
753
746
748
746
748
750
750
752
753
754
757
758
757
755
752
747
747
744
747
751
763
780
803
827
857
882
896
901
904
913
935
971
1016
1053
1074
1061
1015
937
844
757
685
636
605
585
568
554
538
525
512
507
506
504
503
502
506
514
521
538
559
583
608
637
663
681
700
713
720
727
735
739
739
742
745
747
746
747
748
750
751
752
754
753
751
759
758
753
751
749
746
741
742
743
743
743
740
737
737
736
733
728
727
724
722
725
724
721
719
715
713
712
709
700
701
698
702
706
709
710
709
705
704
701
695
696
702
707
711
714
716
721
724
729
737
741
744
745
743
746
750
758
763
772
776
778
772
771
772
775
776
783
782
783
781
777
778
780
791
800
805
804
797
787
781
782
790
798
803
804
803
798
794
789
787
789
788
791
792
796
795
794
790
787
785
784
782
785
786
790
790
785
783
779
780
782
783
783
783
786
786
787
785
785
788
787
792
792
791
787
784
781
781
783
790
793
796
799
797
795
791
789
789
787
790
791
795
793
798
798
799
798
798
795
794
798
804
808
811
817
820
820
823
826
826
824
815
815
823
837
852
865
868
862
852
841
834
828
829
830
831
836
838
848
858
860
861
849
836
826
821
817
813
811
805
802
797
798
795
793
792
790
790
789
792
788
787
788
789
788
791
788
786
784
782
777
782
782
788
789
788
790
787
783
779
776
776
784
790
791
790
786
782
775
777
785
806
833
869
901
929
945
946
942
946
963
997
1049
1099
1130
1133
1094
1018
913
807
720
665
630
609
589
565
544
527
520
517
520
523
523
524
529
536
540
553
575
602
637
672
703
728
747
755
761
760
762
766
770
773
773
775
776
782
783
786
785
783
784
780
775
772
768
768
771
773
775
780
776
774
771
768
764
756
752
750
751
754
758
759
758
755
751
743
741
735
733
731
728
731
731
732
733
737
733
733
727
720
715
713
718
727
739
744
746
746
743
741
739
745
751
756
766
776
780
783
785
786
785
786
790
795
803
804
811
812
813
810
811
811
810
811
811
811
814
815
815
818
818
822
821
824
821
821
814
817
818
816
816
817
817
820
819
822
823
815
815
815
815
813
813
813
812
809
807
806
809
807
810
813
814
813
814
813
814
808
808
807
805
802
803
807
806
813
814
814
815
815
820
826
827
820
812
805
800
801
809
817
827
826
826
828
821
818
817
814
813
813
810
811
817
825
830
836
838
836
831
834
837
842
846
848
853
856
865
872
881
883
879
875
866
863
860
858
855
856
857
864
871
874
872
869
862
855
849
844
839
836
831
829
825
821
816
811
807
804
806
807
809
808
803
804
802
805
808
807
805
805
804
810
813
816
816
812
807
806
807
805
806
804
801
799
799
803
806
810
817
826
843
873
908
947
973
985
984
984
1002
1033
1087
1129
1154
1143
1089
990
877
766
681
624
588
571
561
551
546
541
530
527
525
527
530
537
542
549
558
574
598
627
659
690
720
744
764
776
782
787
788
788
791
791
789
795
798
801
803
800
803
806
805
804
804
807
805
808
803
800
795
796
793
793
792
791
788
785
775
773
768
773
774
778
778
778
775
771
769
764
759
755
748
748
750
754
757
755
754
751
749
747
745
749
754
757
758
761
763
766
770
774
778
782
786
789
796
803
808
811
813
817
820
823
816
813
816
820
822
828
833
835
838
837
837
833
832
835
835
838
840
841
839
839
834
834
834
834
830
829
828
827
827
826
828
831
832
835
832
828
822
817
813
814
818
822
827
825
825
818
816
811
813
814
811
815
820
822
824
825
819
817
818
819
817
817
815
813
811
814
820
824
826
826
823
822
821
823
820
821
818
823
824
826
826
825
824
823
824
819
821
822
825
827
830
834
831
833
836
835
837
837
839
842
849
849
852
858
859
858
864
873
876
882
880
877
878
871
867
864
861
857
859
862
866
874
876
876
881
871
866
858
846
833
827
824
820
822
819
815
813
813
815
818
819
819
813
814
812
809
807
807
809
809
812
811
814
812
814
813
814
813
811
810
808
810
813
816
808
806
799
797
798
804
812
831
858
895
933
962
980
990
990
987
997
1022
1064
1116
1153
1157
1118
1033
915
796
693
625
582
564
555
551
544
537
530
526
527
525
526
529
535
542
555
574
603
640
679
711
744
765
778
784
785
786
783
791
795
799
801
807
807
807
809
809
808
810
807
804
797
795
792
797
797
800
804
804
800
800
792
792
786
785
785
786
783
776
773
769
770
769
766
766
767
766
768
767
766
759
751
750
750
751
747
751
754
759
757
760
760
757
759
762
766
771
776
780
784
794
796
805
806
806
806
808
817
823
822
824
828
830
830
841
842
844
843
842
842
841
842
841
847
849
849
848
847
844
843
843
841
842
845
841
845
845
847
850
847
845
845
841
832
828
830
832
838
842
840
842
840
835
835
831
832
833
832
831
836
834
838
839
837
833
836
836
835
838
840
842
840
840
835
837
839
841
839
842
841
840
836
838
841
844
843
841
838
840
841
836
837
837
834
840
843
849
846
848
843
846
846
844
843
843
844
844
843
843
846
855
859
863
866
865
867
868
867
868
872
874
882
887
889
895
897
896
893
890
884
884
881
878
875
872
879
884
886
889
900
901
898
892
883
872
866
862
856
849
847
840
834
836
829
830
830
831
830
832
832
830
829
826
829
825
827
826
825
827
830
836
833
830
826
824
824
828
825
826
828
834
835
838
835
832
829
826
820
820
822
833
855
887
922
956
987
1004
1003
1001
1000
1018
1053
1103
1144
1176
1163
1106
1014
900
796
713
652
617
597
582
570
558
549
545
542
545
543
545
542
540
542
552
565
587
615
648
683
716
742
760
774
786
792
798
803
807
811
812
813
816
820
820
818
816
818
815
816
817
820
822
824
824
823
821
820
817
814
812
812
808
809
810
806
805
801
797
794
791
787
789
788
783
781
780
778
777
774
776
773
776
771
772
771
772
769
769
768
767
769
771
772
774
775
777
780
784
787
794
795
799
802
809
810
814
818
825
827
835
836
844
842
840
840
841
841
842
844
844
846
851
852
856
855
854
856
854
853
851
850
847
849
851
850
853
856
860
855
853
857
850
847
843
842
845
846
851
850
850
847
845
842
844
843
837
838
839
843
844
844
844
841
841
838
835
836
838
837
839
842
845
843
849
843
840
836
834
832
834
842
842
842
842
844
844
843
841
838
838
837
838
835
839
842
845
847
847
848
843
844
842
842
842
843
844
845
848
849
848
847
848
852
854
851
854
853
856
858
861
863
866
869
875
872
874
873
877
884
894
902
909
913
909
903
898
884
873
871
875
886
898
905
909
904
898
887
876
865
855
852
845
844
842
844
844
840
839
838
833
831
832
834
832
834
831
833
835
839
838
833
833
830
830
830
829
832
833
836
838
838
835
832
830
830
833
829
827
829
830
836
849
869
895
932
963
992
1004
1005
1003
1011
1036
1074
1120
1156
1168
1133
1051
933
811
705
633
591
572
564
561
555
548
548
543
546
548
548
555
560
571
589
607
634
667
696
725
748
764
780
791
795
800
804
807
811
818
818
825
825
823
824
825
827
828
822
819
818
821
823
824
818
816
809
808
806
807
807
807
807
806
809
808
804
799
794
788
788
787
779
784
778
777
776
776
779
778
776
773
770
769
771
771
774
774
773
776
778
779
782
784
783
794
792
799
802
804
809
812
813
818
823
828
831
835
836
837
842
847
851
852
851
845
848
853
858
858
860
862
864
861
864
861
865
862
862
856
862
862
866
864
866
868
859
855
856
860
861
861
862
857
861
861
865
865
862
856
855
854
853
856
856
856
858
856
858
856
857
858
852
851
852
853
853
853
855
857
856
857
861
864
865
863
865
865
860
856
856
859
864
865
864
863
864
865
865
864
862
869
865
866
864
866
869
866
869
866
860
859
859
863
866
870
871
868
869
871
870
867
870
872
873
876
879
877
883
884
882
884
888
889
891
894
891
898
902
906
911
920
927
933
934
925
919
913
906
903
901
904
910
914
917
922
928
919
920
917
914
906
902
895
887
878
873
868
867
868
866
866
866
868
865
861
853
851
854
855
858
860
858
857
856
857
857
859
860
860
861
859
859
856
857
858
858
863
864
865
866
862
859
854
851
850
854
868
892
925
965
1000
1026
1038
1038
1038
1050
1078
1120
1159
1183
1172
1118
1025
917
815
729
673
642
626
615
608
600
593
586
581
579
580
578
579
585
588
593
608
628
655
689
721
751
775
795
808
817
823
829
834
835
842
842
848
849
852
855
855
855
855
853
850
845
844
843
849
851
853
856
855
853
848
839
839
838
837
836
832
833
833
831
829
821
816
811
812
810
811
808
810
807
809
806
805
804
800
797
796
794
797
799
807
810
810
809
810
812
814
815
816
818
822
829
834
839
843
847
848
852
854
855
857
862
866
869
873
877
882
885
884
881
882
880
881
883
886
892
893
893
892
891
891
888
883
886
887
889
890
888
892
891
887
888
883
881
878
878
880
880
882
883
885
882
876
873
874
874
873
872
875
873
873
875
874
875
875
874
875
874
875
874
874
873
876
879
881
880
877
873
873
874
875
874
872
876
878
879
881
880
879
879
879
880
877
873
871
873
879
882
883
884
885
886
883
886
884
879
875
873
879
881
887
891
893
892
893
891
893
895
895
894
898
900
907
912
914
917
918
921
929
934
941
937
934
928
926
920
919
918
918
919
920
923
926
934
934
931
927
922
913
907
900
894
890
887
886
883
884
876
875
872
871
875
870
867
865
866
866
865
869
869
869
868
869
869
867
862
863
862
864
865
868
867
866
870
870
869
870
867
864
860
858
854
855
861
874
901
933
966
997
1019
1029
1029
1029
1033
1055
1090
1134
1171
1190
1176
1121
1031
923
817
735
680
649
632
622
608
598
587
579
571
569
572
574
577
587
593
603
615
631
658
686
717
746
773
791
812
821
836
840
843
847
849
849
850
851
847
847
857
859
864
862
861
857
853
850
852
852
848
847
846
846
847
846
845
845
835
835
829
827
823
825
823
821
819
820
824
823
821
816
813
805
803
804
805
804
801
799
800
804
803
804
807
801
798
797
798
799
802
808
812
821
824
822
822
819
823
825
831
842
847
853
858
863
863
864
866
866
869
866
868
867
870
874
882
887
891
888
885
883
880
883
883
884
885
888
890
890
887
887
885
880
879
880
880
881
885
884
887
887
884
882
880
875
872
870
872
874
875
871
876
876
877
876
878
876
871
870
867
873
874
877
875
880
877
878
879
876
878
874
868
868
869
872
876
879
879
878
877
875
875
876
877
879
881
880
878
879
879
878
877
878
876
876
877
876
876
880
880
883
882
882
880
876
874
877
878
880
881
881
883
882
885
886
890
891
893
889
894
898
898
903
907
906
912
913
916
921
925
929
931
931
927
924
922
917
913
911
911
914
920
924
929
927
923
914
905
897
891
886
883
878
875
869
867
862
865
866
866
866
867
864
860
859
860
859
860
860
862
859
858
859
858
858
860
860
860
860
859
860
863
864
865
861
860
859
857
861
870
886
907
937
973
1005
1030
1039
1039
1034
1034
1057
1088
1123
1166
1178
1161
1104
1008
898
793
713
660
630
614
605
597
590
585
581
576
573
573
575
577
585
593
601
619
645
678
706
737
764
788
807
818
826
829
830
830
834
840
843
849
848
850
849
847
847
847
847
846
847
848
848
846
846
845
842
839
834
831
826
827
831
829
831
829
822
821
820
816
813
807
804
799
798
799
799
804
802
802
798
795
792
788
787
787
787
787
792
794
798
799
801
803
804
805
804
803
805
813
819
829
836
842
839
842
841
842
845
849
853
857
862
867
865
863
868
868
868
868
868
870
874
876
875
875
873
871
870
866
868
871
870
870
869
872
872
874
875
874
872
869
867
865
860
851
855
865
869
869
869
871
866
862
863
861
854
853
853
854
856
861
861
861
860
857
858
857
857
858
860
858
862
864
860
859
857
859
859
858
860
862
859
862
864
866
865
866
864
862
860
860
859
859
862
861
864
862
862
859
861
859
861
861
861
860
863
863
863
869
868
867
870
866
864
865
867
868
873
877
881
883
883
886
885
886
885
886
888
892
898
903
915
919
920
917
913
907
901
895
890
887
890
897
903
908
912
911
913
907
901
891
879
871
867
866
863
861
861
856
853
848
846
842
839
839
836
844
842
845
844
841
841
836
840
840
840
839
843
842
843
846
845
845
847
839
839
841
839
838
840
840
841
841
832
834
837
846
863
890
922
956
989
1011
1017
1016
1014
1030
1063
1106
1144
1165
1143
1068
961
841
733
666
622
601
592
579
571
566
559
555
557
557
560
563
571
580
591
612
639
673
704
736
766
787
805
815
817
820
819
821
824
825
828
831
832
835
835
838
839
839
837
836
833
832
833
830
830
832
831
834
831
827
825
820
818
813
811
810
809
811
809
806
804
804
800
795
792
787
783
784
787
787
788
788
788
783
784
782
780
781
778
779
783
782
786
790
794
795
795
801
803
800
805
812
818
823
829
835
839
840
840
844
846
850
849
851
854
861
861
863
868
868
870
870
866
870
865
869
866
871
873
873
877
872
871
867
865
868
868
867
868
871
872
872
874
870
867
860
861
859
856
857
864
859
863
865
863
861
861
860
857
857
856
857
858
862
865
866
863
864
862
860
858
854
857
859
862
864
865
864
866
867
866
865
864
864
860
861
863
866
866
868
866
865
868
866
865
867
863
866
866
872
869
872
870
871
871
871
868
866
864
869
867
870
868
871
877
878
877
876
878
877
878
877
879
886
890
893
897
898
898
899
896
898
901
905
911
919
926
931
928
922
915
913
907
904
901
902
908
919
927
929
931
928
918
907
902
894
891
887
880
879
878
879
875
874
871
868
866
866
863
864
866
866
867
870
871
869
864
863
861
863
863
864
864
866
865
868
866
868
867
866
865
866
864
861
861
862
858
861
865
882
902
932
970
1009
1038
1064
1073
1068
1062
1067
1081
1113
1149
1177
1179
1145
1067
957
842
739
670
630
616
606
599
590
581
576
570
569
568
572
574
582
588
595
605
617
638
663
699
736
768
795
815
823
836
835
838
841
841
843
843
843
847
850
855
857
854
851
850
849
848
845
843
844
847
844
848
847
846
844
841
837
835
829
827
825
825
820
820
823
819
817
813
810
804
800
795
793
790
788
789
794
794
795
794
788
789
789
792
791
792
795
802
809
807
813
812
812
816
820
824
826
834
839
843
847
850
852
854
858
860
864
866
869
871
872
875
880
879
880
878
877
877
874
875
878
881
883
883
887
887
886
886
882
878
880
880
879
879
881
879
886
885
885
880
877
876
871
874
874
874
876
876
877
876
874
873
871
870
868
867
868
872
872
872
872
873
874
874
874
872
871
869
869
869
873
874
876
879
881
876
876
874
870
871
871
873
874
873
879
877
878
879
876
877
877
874
877
880
878
880
882
878
882
882
881
879
880
878
877
880
881
882
886
884
882
883
883
886
885
886
889
894
898
901
907
907
908
906
905
907
911
914
920
931
934
932
933
929
924
919
911
908
908
911
915
925
928
932
934
933
924
914
908
899
891
890
881
884
883
881
877
875
873
870
869
869
867
865
869
868
868
870
869
869
869
870
868
865
862
859
862
862
867
867
870
871
873
872
868
870
866
862
855
855
853
857
869
891
922
960
995
1022
1033
1032
1027
1030
1049
1090
1132
1174
1198
1188
1132
1043
933
831
747
692
668
652
638
632
616
602
594
588
585
584
585
591
595
601
609
621
637
658
688
718
748
775
792
814
825
832
836
839
842
842
843
847
847
845
850
850
853
856
856
853
857
855
855
851
848
848
847
843
845
845
841
841
840
835
833
827
823
820
818
817
817
817
815
813
810
806
805
805
802
797
795
797
796
797
798
798
799
796
794
790
788
793
795
797
803
806
810
815
817
816
819
820
825
828
832
838
844
849
854
860
860
864
861
867
868
866
868
873
875
876
882
886
882
880
880
878
878
877
880
876
883
883
883
885
885
883
884
882
879
877
875
880
878
881
883
881
878
876
875
870
869
865
865
868
868
870
875
873
872
872
870
869
864
865
864
862
864
868
870
873
871
873
873
870
872
867
869
874
871
873
874
878
876
873
876
874
870
869
870
875
876
879
881
879
880
879
874
871
872
866
869
871
872
875
880
879
883
879
875
870
873
870
873
878
881
885
889
894
894
896
895
897
899
898
901
900
904
915
921
926
932
928
928
923
916
910
907
902
903
902
902
906
912
917
922
921
918
912
901
896
889
886
880
878
874
870
867
863
858
855
856
855
858
859
863
865
865
861
859
856
856
854
853
852
852
854
857
856
856
860
852
849
848
848
851
855
856
858
859
855
851
852
852
863
877
905
939
971
997
1017
1017
1014
1012
1018
1042
1078
1125
1158
1166
1142
1075
977
871
775
704
661
638
623
613
600
589
578
571
568
571
579
583
581
583
591
596
609
634
664
699
736
764
790
807
817
823
823
826
827
831
836
839
845
849
847
847
847
843
845
844
845
845
842
840
841
842
842
840
840
835
829
830
824
823
820
819
820
815
814
812
810
805
804
800
799
796
798
799
800
799
799
794
791
792
791
784
785
783
785
792
793
797
799
802
804
807
806
812
812
815
817
829
834
836
845
847
846
851
851
855
855
856
858
859
863
867
867
871
872
871
871
872
869
868
871
872
874
876
880
880
880
873
875
871
871
871
871
873
876
879
874
875
872
872
869
869
868
866
867
869
869
868
867
866
865
865
862
860
859
860
861
862
865
864
865
865
866
867
865
863
861
862
863
863
862
863
865
867
867
865
863
861
861
863
865
867
868
870
871
873
872
868
868
865
862
863
867
868
871
870
872
869
871
869
867
866
866
867
866
868
872
873
873
874
873
871
873
874
872
876
877
881
879
887
890
892
892
893
895
895
897
903
911
917
920
921
917
912
908
899
896
895
895
900
908
913
913
920
917
909
900
889
883
873
874
867
866
865
864
862
863
861
857
856
851
849
848
847
849
852
852
855
856
853
852
852
848
845
846
846
848
850
848
852
855
852
850
850
847
844
841
838
835
839
848
868
893
923
960
995
1019
1030
1029
1022
1021
1035
1064
1106
1144
1162
1156
1100
1007
895
788
703
650
623
608
600
594
587
578
572
566
564
566
568
574
580
593
608
627
661
693
729
759
783
799
809
814
816
821
823
825
830
831
833
829
831
827
830
830
833
831
834
833
832
832
825
821
819
818
815
818
820
816
816
816
813
811
807
805
800
796
797
792
792
791
792
791
788
785
786
780
779
777
774
774
774
777
780
781
783
784
783
781
782
785
788
793
799
805
808
816
819
825
827
827
832
834
838
842
846
849
851
854
860
857
859
862
860
859
865
864
868
869
872
872
873
873
868
864
864
865
865
865
869
869
873
870
869
866
867
863
860
857
860
860
863
863
864
866
867
863
861
858
857
855
854
854
855
857
859
860
858
862
860
859
858
859
859
857
857
859
863
863
864
861
860
858
858
859
857
855
857
859
863
867
867
867
865
864
862
862
862
864
865
866
871
872
871
871
871
867
864
864
863
865
864
865
868
869
869
871
870
866
873
875
877
883
884
889
889
896
896
897
895
893
896
903
909
915
920
922
924
922
918
909
901
896
893
892
895
905
912
919
924
924
917
910
900
891
882
876
871
868
865
865
866
864
861
859
855
853
850
850
851
852
854
854
855
856
855
854
851
850
849
848
848
847
849
850
854
855
854
851
848
850
846
849
843
843
842
843
843
851
862
885
911
939
970
995
1008
1009
1006
1008
1023
1056
1102
1146
1170
1166
1115
1021
904
792
705
651
623
608
599
591
582
572
565
558
559
560
563
568
572
583
595
615
639
670
705
740
769
791
809
817
823
827
828
833
834
836
836
834
836
837
838
842
842
847
846
843
843
841
839
834
829
831
833
833
834
833
829
827
822
821
815
809
807
804
803
802
801
801
801
799
797
796
789
789
783
783
786
786
787
786
787
787
783
783
778
781
783
783
786
792
795
795
801
800
803
805
808
815
822
827
833
840
843
848
846
849
850
847
853
854
856
856
854
861
865
869
869
869
869
866
863
863
866
865
865
870
868
869
872
872
868
867
863
864
863
864
864
862
866
867
866
864
862
860
857
855
855
855
857
858
857
857
858
858
856
854
853
853
850
851
854
858
859
858
854
855
859
856
852
854
853
857
856
860
855
859
857
857
856
860
859
855
852
856
859
858
862
862
864
863
860
859
857
854
855
855
859
861
858
861
859
863
857
859
861
861
858
858
860
868
870
875
876
878
880
880
880
876
880
880
886
893
899
910
912
911
909
903
899
892
888
884
883
885
890
896
900
906
906
903
895
884
872
865
860
858
855
855
851
849
846
841
839
837
837
841
839
843
841
843
842
839
839
840
836
828
831
833
834
835
835
839
839
837
836
835
835
834
833
832
832
832
833
834
830
831
836
855
883
913
947
976
994
998
993
999
1019
1054
1096
1139
1159
1146
1094
1001
892
783
697
645
612
593
583
573
563
556
548
545
549
553
557
562
569
576
589
609
635
669
705
738
767
788
802
811
812
812
814
814
816
816
813
818
820
826
829
829
829
825
824
823
819
821
819
816
820
820
818
819
819
817
813
810
809
807
801
798
793
792
790
790
787
787
784
781
778
775
773
772
772
773
769
771
771
767
766
764
762
765
763
765
767
770
774
778
777
780
780
786
784
791
794
800
803
811
817
821
824
825
829
826
828
829
830
829
834
836
840
844
846
846
847
846
843
845
841
841
844
842
842
852
850
849
847
845
843
843
839
841
841
843
846
849
849
848
843
838
836
835
834
834
838
836
839
840
838
837
838
834
833
833
831
833
833
837
837
837
837
838
836
834
833
832
832
832
836
836
838
844
841
842
837
837
834
833
834
837
838
838
841
842
839
840
841
841
840
840
836
837
841
840
842
844
846
841
842
841
837
838
840
838
840
842
845
848
850
853
852
852
856
856
854
857
859
860
865
870
876
878
885
889
892
892
888
881
879
875
872
871
871
875
882
887
891
886
880
870
864
856
851
846
845
842
838
836
829
826
821
820
819
824
824
826
823
822
827
823
819
817
815
815
815
818
820
822
821
820
822
818
816
816
814
813
815
815
819
820
816
816
814
808
813
826
847
881
920
953
981
998
998
987
989
1003
1034
1074
1112
1126
1103
1025
914
794
684
608
564
543
533
532
528
531
533
533
535
535
539
544
555
568
592
619
651
686
717
744
762
777
784
788
788
790
790
792
794
795
798
802
804
807
807
807
803
800
799
797
798
793
793
794
795
794
791
789
786
782
779
775
770
768
763
762
764
765
761
757
755
753
752
750
746
744
745
745
746
744
745
741
741
740
738
736
738
742
745
749
753
754
757
762
766
767
767
772
777
783
787
795
800
803
807
807
811
811
807
809
812
812
815
819
822
826
825
824
823
820
819
822
819
820
821
823
828
828
827
826
825
824
819
820
816
813
813
814
816
818
819
819
818
817
815
814
810
812
812
814
811
814
812
814
811
811
811
808
807
806
808
811
813
813
812
811
812
812
812
808
807
806
810
812
813
817
817
815
815
813
812
810
810
809
812
815
815
817
815
814
811
808
810
812
811
808
814
816
816
819
816
816
815
818
816
816
819
824
827
832
836
841
841
839
840
840
839
843
848
858
865
874
874
873
867
860
854
846
842
836
839
845
855
864
870
870
867
857
845
833
823
821
812
810
809
813
811
809
806
805
803
796
797
799
799
801
798
800
799
803
799
797
799
798
796
799
798
797
798
801
803
805
804
801
804
797
796
797
791
791
790
790
796
808
827
851
884
909
937
956
961
958
962
974
1006
1056
1099
1120
1105
1041
937
813
703
615
568
546
535
534
531
525
520
517
516
516
517
519
523
531
540
555
569
593
621
651
682
708
727
744
760
768
776
780
780
781
783
784
788
785
789
790
789
795
798
799
799
798
794
794
790
788
785
785
782
783
782
784
779
778
781
776
775
770
763
761
762
762
762
760
760
757
755
750
748
746
743
744
743
743
744
745
742
741
742
740
739
738
736
738
740
748
749
749
754
758
761
763
764
767
771
773
779
788
788
793
799
803
811
807
809
811
811
809
809
814
819
821
825
828
829
824
826
825
823
826
829
827
829
829
829
830
828
828
826
824
825
825
828
828
826
828
828
827
823
821
821
815
815
814
816
818
816
819
816
817
816
814
812
811
810
809
808
814
817
816
816
815
817
814
809
808
810
810
810
812
815
816
817
815
815
810
812
806
810
809
809
815
816
818
819
816
814
813
811
811
811
811
816
816
816
817
816
820
817
815
811
811
811
813
816
818
821
823
828
830
831
832
831
831
832
833
833
836
841
847
853
860
864
864
862
856
849
841
839
834
837
840
846
851
857
860
857
853
842
836
830
825
820
817
812
812
809
804
803
797
793
793
796
796
796
796
796
793
795
791
787
787
788
786
790
792
795
795
797
796
796
792
791
794
790
791
792
796
796
799
796
794
791
792
797
814
839
876
913
949
967
977
974
974
987
1015
1052
1088
1104
1081
1018
918
809
710
642
598
577
566
556
546
537
531
524
524
530
532
531
533
536
545
553
564
587
617
647
680
709
732
749
762
767
769
771
770
773
777
781
784
786
787
789
792
789
792
789
787
785
783
784
783
786
784
785
783
782
775
769
762
761
758
758
763
758
759
757
756
753
749
745
743
740
741
739
738
737
737
738
735
735
732
731
729
729
730
734
735
735
739
744
746
749
750
752
753
756
763
766
770
777
780
788
791
792
793
794
795
799
798
800
805
805
809
812
813
816
817
813
817
815
814
817
819
818
820
821
821
822
819
818
817
816
816
815
820
819
820
822
818
819
818
814
810
810
807
808
809
811
812
814
816
813
811
808
807
807
806
809
805
809
810
811
809
808
808
811
809
809
810
809
810
811
815
814
816
815
813
811
810
808
813
810
813
815
816
816
820
817
816
815
814
815
816
818
818
819
820
822
823
822
819
819
815
814
819
822
827
830
833
839
841
843
843
845
846
846
848
853
858
863
872
879
882
881
878
872
865
857
851
850
855
860
870
878
881
882
875
865
852
847
842
837
833
833
833
830
827
828
817
818
818
816
815
816
819
816
818
824
823
822
816
815
813
814
813
816
817
816
822
821
822
822
822
822
820
815
814
810
814
821
831
851
878
914
949
975
986
986
982
989
1016
1054
1100
1134
1142
1110
1035
925
811
712
641
603
585
576
570
565
557
549
546
546
545
543
546
555
561
569
584
603
621
651
683
711
738
762
776
788
796
799
804
808
813
812
817
816
818
817
817
818
817
817
819
822
822
824
821
818
815
812
810
808
811
808
807
806
802
801
795
795
792
787
785
784
782
781
783
780
780
775
773
771
769
767
766
764
766
767
771
772
772
770
771
770
770
770
774
776
780
786
790
795
798
800
800
803
807
808
812
816
818
825
827
831
835
837
840
839
839
840
842
843
845
848
850
848
848
851
850
847
849
847
843
847
848
849
850
850
850
850
849
848
845
844
844
845
845
846
849
848
848
846
845
843
840
837
840
838
837
840
841
844
842
842
841
840
839
839
838
838
840
843
844
847
845
844
843
843
842
840
839
842
843
842
844
846
845
843
843
842
840
842
840
842
843
844
846
849
847
849
848
847
845
844
843
845
845
846
848
848
850
851
848
845
845
849
850
852
857
862
865
871
877
877
879
877
883
883
884
892
899
907
914
911
907
906
896
893
887
882
885
887
896
903
908
911
915
907
900
890
878
868
869
867
867
864
861
862
859
855
849
849
847
845
846
845
847
850
851
853
850
849
848
849
849
848
846
845
846
848
853
851
852
849
850
851
848
850
848
845
843
845
846
856
870
895
926
957
984
1005
1013
1009
1008
1014
1035
1072
1117
1155
1172
1155
1096
998
884
779
701
649
631
619
611
601
593
581
576
574
577
579
586
589
594
604
613
629
645
673
702
734
765
788
810
823
831
837
837
839
840
845
844
848
848
846
851
853
859
857
856
856
853
852
849
849
847
848
849
850
845
845
846
842
838
834
830
826
825
824
823
824
824
821
819
816
813
809
807
806
802
804
804
805
807
806
803
805
805
801
802
801
801
800
801
804
807
813
814
814
816
817
819
821
825
830
836
841
848
853
852
860
860
861
862
863
863
867
871
875
878
881
882
880
880
880
882
882
881
881
885
884
886
886
892
891
890
887
887
884
884
883
885
888
888
889
886
884
882
882
879
880
881
880
880
881
882
880
877
877
872
874
876
877
873
874
876
875
878
878
879
879
876
876
874
876
877
877
878
877
877
878
878
881
880
881
879
877
877
876
877
879
880
881
882
881
881
881
878
878
879
878
883
884
884
882
885
884
881
880
882
879
878
881
879
881
886
889
894
894
895
894
894
894
894
895
902
904
907
910
913
914
919
920
926
928
929
934
930
927
922
918
911
913
909
913
914
920
925
930
930
926
922
915
907
899
891
887
881
880
875
871
870
869
868
868
868
869
867
865
864
861
861
858
860
862
862
863
862
863
863
863
860
862
858
860
861
860
862
866
867
871
863
862
856
852
853
853
858
875
899
929
962
992
1018
1036
1036
1029
1027
1038
1065
1106
1146
1171
1169
1124
1039
923
813
720
655
623
610
605
602
598
586
579
572
574
573
575
576
578
588
592
607
626
650
677
707
741
768
788
806
817
824
829
834
838
844
847
846
846
845
843
844
842
845
845
848
849
848
844
842
838
836
836
833
835
833
835
836
838
831
828
825
820
811
808
805
807
807
804
804
810
805
802
799
791
793
791
788
792
793
794
798
795
794
794
795
795
790
791
797
799
803
808
813
819
821
824
826
828
830
836
840
843
849
856
858
858
860
863
866
864
867
869
870
869
870
876
880
881
879
878
871
873
873
876
876
878
877
880
883
880
883
878
877
878
871
874
873
875
874
875
871
876
875
874
872
871
871
868
868
870
871
869
869
871
869
868
867
868
866
865
867
867
867
869
870
872
871
870
869
866
863
866
863
867
871
872
877
876
874
873
873
871
870
868
866
869
870
872
875
871
873
871
871
874
871
870
870
870
872
874
877
878
877
877
880
878
878
879
881
886
887
891
895
900
901
902
899
898
900
905
911
917
921
925
929
927
920
914
907
901
900
903
906
913
920
924
925
921
913
898
891
879
877
875
871
869
865
865
864
865
865
864
863
860
857
854
855
855
854
856
857
859
859
861
859
860
855
856
854
854
855
858
862
862
861
860
861
858
852
852
850
848
854
871
895
928
961
995
1019
1023
1016
1013
1015
1038
1076
1123
1161
1176
1151
1076
969
856
753
681
638
620
613
605
600
594
589
583
584
585
587
588
588
595
609
626
649
681
715
748
771
796
812
824
828
834
840
841
845
848
845
848
849
848
848
849
848
848
848
852
852
854
852
851
846
842
843
839
837
836
838
835
833
834
827
825
822
818
816
814
814
808
809
808
810
811
807
805
802
802
798
793
790
791
793
795
796
798
798
798
799
798
797
798
801
808
809
815
821
827
828
830
832
837
839
843
846
853
857
863
866
869
869
868
870
871
870
874
872
875
878
880
882
880
882
880
879
877
873
873
874
877
878
886
888
888
884
882
877
882
879
879
876
878
877
880
880
878
877
878
877
876
872
871
870
872
870
869
872
873
872
872
875
871
871
869
868
872
873
872
877
880
873
874
872
872
868
867
868
868
875
882
882
887
884
881
879
879
880
878
877
880
879
880
880
882
878
877
879
880
878
878
877
879
882
886
883
890
890
888
888
886
882
885
889
891
896
897
904
906
905
907
911
909
909
915
916
924
930
935
935
935
930
924
917
914
909
908
910
914
922
931
938
942
935
926
916
907
900
890
889
886
883
884
883
882
879
879
874
872
871
866
867
866
870
874
875
877
874
871
870
870
870
870
872
872
870
873
871
874
874
872
872
875
871
869
866
864
861
862
869
884
902
932
963
998
1029
1048
1051
1047
1047
1055
1078
1116
1150
1167
1157
1103
1008
901
798
719
670
648
633
628
621
618
608
603
597
602
600
600
608
619
632
652
678
707
738
767
793
813
828
835
842
848
852
857
857
861
859
860
859
855
858
858
857
860
860
862
865
861
864
858
855
852
847
847
846
849
850
847
849
842
837
836
833
827
826
822
822
825
824
825
823
819
816
815
811
807
806
804
802
805
807
804
804
807
806
805
804
803
801
799
804
810
815
817
819
825
829
833
839
839
843
845
853
856
860
867
870
872
874
871
875
876
874
877
881
881
883
889
892
891
893
890
889
887
884
883
884
886
889
892
893
895
893
889
888
889
891
892
891
892
892
892
892
889
889
887
885
884
885
879
881
883
882
886
886
883
880
881
880
874
871
874
879
881
879
881
883
883
881
880
877
876
876
875
877
881
883
887
886
884
879
880
880
879
877
880
879
882
885
886
884
886
884
884
883
883
879
878
879
884
882
886
884
887
888
885
886
886
885
885
889
893
896
901
905
905
906
906
905
906
901
905
912
918
924
933
939
941
936
932
930
919
915
910
910
910
914
919
923
932
934
932
927
920
910
901
898
892
892
893
889
887
884
880
876
874
870
869
870
871
871
874
871
869
867
867
867
867
863
866
865
867
868
871
869
868
867
867
866
861
861
866
866
869
870
870
869
866
862
858
857
860
869
891
912
946
975
1001
1014
1019
1014
1010
1021
1041
1078
1119
1148
1149
1107
1030
924
820
736
677
644
625
616
611
610
607
608
608
608
606
604
605
606
614
625
639
666
693
725
753
779
797
811
818
820
826
831
834
840
845
851
854
853
855
856
854
852
855
854
851
854
855
856
855
852
849
849
844
842
841
839
838
837
835
834
833
830
826
828
825
823
819
816
813
816
812
814
814
812
809
808
804
800
798
796
796
798
800
804
805
804
806
808
808
809
812
814
814
819
825
830
834
838
843
846
851
852
849
854
858
859
861
865
870
870
872
875
874
875
873
874
873
874
881
883
883
886
884
881
881
877
874
876
876
876
880
880
881
879
882
878
876
869
870
871
870
870
873
874
878
875
874
876
870
868
865
864
866
868
871
869
871
872
874
870
869
865
862
868
868
868
869
871
871
872
871
870
870
869
869
867
869
870
871
871
874
871
874
873
871
868
867
869
869
869
873
877
879
880
878
878
877
872
873
867
865
874
877
880
883
883
886
883
882
882
882
883
885
890
895
892
897
902
899
907
912
914
915
912
910
907
901
898
902
901
904
905
909
914
915
912
910
905
897
890
887
882
879
872
869
866
861
859
860
857
859
861
863
861
861
860
854
851
854
849
851
853
858
859
861
862
861
857
856
856
855
854
853
859
859
861
862
860
858
859
856
861
867
884
910
944
981
1011
1026
1031
1025
1026
1037
1063
1096
1127
1132
1099
1028
929
834
747
685
652
630
620
613
609
605
602
600
601
604
605
604
605
608
614
625
637
659
679
710
745
772
796
812
823
826
833
829
833
833
835
840
845
848
850
849
848
849
844
846
844
846
842
844
846
847
849
849
848
844
839
835
830
829
830
830
830
829
827
825
822
818
812
811
807
806
805
803
804
805
804
804
802
798
795
795
794
791
792
793
791
793
795
797
799
803
803
804
806
808
815
820
826
830
834
838
843
843
845
845
850
855
857
858
866
868
867
871
869
870
873
871
871
874
873
880
879
875
881
880
879
880
877
874
875
876
875
876
879
884
885
885
882
880
877
875
875
874
874
873
876
874
876
875
873
871
869
869
870
864
870
871
870
870
871
871
870
869
870
865
867
867
869
869
872
871
875
876
875
873
873
869
870
871
868
872
877
877
877
875
877
872
873
868
868
874
874
874
877
879
880
882
882
878
878
876
871
875
877
877
878
881
886
888
888
890
889
891
892
896
897
900
903
908
908
915
921
922
924
924
925
920
919
915
912
912
910
910
913
916
920
919
922
922
918
916
908
903
895
895
891
886
884
877
870
866
868
866
868
872
870
872
870
868
869
864
865
861
864
867
866
868
867
868
868
867
867
867
864
860
862
863
869
870
872
871
871
867
864
862
856
862
874
897
926
955
986
1006
1015
1011
1013
1023
1052
1090
1122
1144
1132
1080
998
900
809
739
693
664
649
634
628
622
615
612
614
610
610
612
613
617
625
638
658
680
709
739
766
790
808
820
830
836
838
843
844
851
855
857
857
861
863
862
862
858
857
859
860
860
861
863
862
859
859
856
853
850
847
845
845
842
844
844
844
839
835
831
826
824
821
821
820
818
818
822
818
817
816
812
809
807
808
809
813
810
811
815
818
817
820
821
824
822
827
831
831
836
837
845
852
856
858
859
860
864
867
869
872
873
879
881
886
889
889
889
890
888
889
891
893
895
896
899
900
898
898
895
893
891
891
890
888
892
893
894
896
895
895
889
888
884
884
884
888
887
888
890
886
891
889
888
885
883
881
882
883
884
885
885
886
884
881
881
882
878
882
880
884
884
887
885
889
888
884
884
881
881
880
880
882
882
885
884
886
885
886
883
879
880
877
877
881
882
882
886
888
891
889
885
885
884
883
884
881
884
885
887
890
893
896
899
898
899
900
901
903
906
907
910
913
918
924
925
929
929
928
923
916
915
914
913
915
914
915
921
921
922
924
917
916
911
907
899
898
896
890
891
882
879
873
867
869
874
875
875
874
872
873
869
867
867
863
863
863
864
868
866
864
865
868
865
865
862
862
864
862
864
867
865
868
868
863
861
860
863
869
885
910
936
969
1004
1028
1037
1039
1035
1037
1047
1070
1096
1124
1129
1113
1064
983
885
799
727
677
647
626
618
611
605
598
596
593
598
600
598
598
598
601
607
617
631
652
672
705
732
763
782
800
811
823
827
829
832
836
842
846
848
851
851
853
850
849
847
848
851
854
853
854
853
852
849
846
844
838
835
838
833
837
837
835
833
829
823
821
819
811
809
811
812
809
807
803
805
805
803
801
800
795
793
791
792
797
799
798
796
796
798
799
798
799
802
807
812
816
823
825
829
835
836
840
842
846
848
851
858
862
866
870
872
871
872
873
873
873
873
875
876
879
880
883
884
885
885
884
883
879
880
881
883
885
885
886
882
888
884
883
880
877
877
880
879
880
881
880
881
880
878
877
875
875
873
874
875
875
878
877
879
877
877
876
876
874
874
875
877
878
880
882
880
882
881
879
878
877
876
881
881
879
881
886
883
879
883
878
876
880
877
879
881
883
883
887
886
887
884
883
884
883
882
884
885
887
890
893
890
895
894
893
894
896
896
902
906
908
913
920
925
927
929
930
926
923
916
912
909
909
908
910
914
916
922
926
925
921
911
906
897
892
892
888
886
881
878
876
869
865
866
867
867
866
867
868
866
870
870
865
862
864
864
860
861
864
863
866
867
864
865
865
862
861
858
861
862
864
859
859
855
854
860
873
898
926
957
989
1012
1016
1018
1018
1031
1059
1097
1132
1153
1149
1108
1034
937
838
764
711
680
659
643
631
620
612
604
602
603
605
611
614
613
617
623
635
649
672
703
735
767
792
811
824
830
836
834
839
840
840
841
843
847
850
850
851
852
851
849
846
846
845
843
842
844
845
843
841
841
837
834
830
827
823
821
821
820
820
819
815
813
812
808
805
803
795
796
795
793
794
794
798
796
793
791
791
792
788
789
791
791
795
798
799
801
806
810
810
816
819
822
827
836
833
839
846
848
853
855
855
854
859
860
864
866
869
873
877
877
878
876
874
874
872
873
872
872
874
879
881
880
879
876
875
872
871
868
868
871
870
872
875
872
873
868
866
864
862
858
867
865
864
868
867
869
866
865
863
858
863
859
857
858
860
863
870
866
864
864
860
858
861
857
857
859
864
867
867
867
866
862
861
859
859
860
861
861
864
869
872
869
868
865
867
865
865
864
864
868
867
870
869
871
871
870
871
874
875
878
879
882
883
889
892
890
894
895
898
900
908
910
914
916
911
906
905
899
894
890
888
892
897
903
910
910
912
907
901
892
884
874
869
865
862
861
861
861
858
859
860
858
856
856
852
850
846
850
850
851
850
852
856
855
852
851
848
849
850
849
847
850
849
847
852
852
851
850
847
843
842
838
842
851
866
891
920
950
974
988
989
984
983
992
1017
1058
1107
1141
1157
1136
1074
982
877
782
708
666
642
632
623
615
608
600
592
591
589
590
587
590
593
603
613
627
647
670
706
735
759
780
797
811
819
825
830
831
837
840
840
842
842
839
840
842
841
846
844
847
849
845
844
842
840
839
838
835
833
833
834
832
833
828
825
823
821
819
815
811
811
810
807
806
808
807
803
800
799
795
790
789
791
794
794
795
796
796
795
795
793
790
797
801
799
804
811
811
818
821
825
826
827
828
832
836
841
847
849
855
857
856
860
862
862
864
861
862
865
869
870
876
877
876
875
877
871
869
869
873
868
875
875
875
878
874
873
872
867
865
869
868
870
869
867
870
869
868
867
866
866
864
863
860
861
860
862
864
867
866
866
862
860
858
859
859
861
860
865
866
867
865
866
866
862
863
861
859
862
864
866
869
872
870
867
865
865
862
865
863
863
866
866
867
871
870
869
869
868
868
869
866
866
867
868
872
873
874
875
875
874
875
873
877
881
885
887
888
887
890
892
893
893
897
900
901
906
910
911
913
909
903
896
892
892
892
899
902
909
916
915
914
908
900
891
882
874
872
869
866
862
859
859
858
858
858
856
855
854
851
851
849
850
852
851
849
853
853
853
851
848
846
845
842
845
846
849
851
854
853
853
852
852
849
846
845
848
856
868
888
918
943
971
996
1005
1009
1000
994
1000
1019
1056
1098
1130
1137
1114
1046
950
843
749
681
642
620
611
609
604
596
588
583
581
584
582
578
581
589
596
612
631
650
676
708
738
763
780
795
809
817
824
827
827
829
832
834
836
837
839
838
839
839
839
844
847
846
843
842
840
835
832
831
828
827
826
827
829
826
824
820
813
812
810
807
802
804
805
803
803
799
799
799
799
795
794
790
791
791
790
794
794
792
793
793
793
792
792
791
792
795
799
803
807
811
812
814
817
821
826
828
830
831
840
843
847
850
851
855
856
858
858
860
863
864
864
871
872
872
873
873
871
869
869
866
866
867
866
864
866
862
865
861
857
856
860
860
862
865
866
868
868
866
864
864
860
861
860
860
856
862
861
861
862
865
864
860
857
856
854
851
852
852
855
859
861
864
864
861
860
861
855
858
854
856
860
863
866
865
863
862
862
858
857
857
857
859
864
863
864
865
866
864
862
864
860
862
861
866
866
868
868
869
867
864
863
863
860
865
863
864
866
870
876
880
881
880
877
882
882
881
884
891
895
902
911
913
915
913
908
898
895
893
891
890
893
895
904
909
914
915
912
903
897
889
882
879
876
873
875
871
867
864
860
857
856
858
856
859
860
858
858
862
860
859
854
856
855
852
854
855
858
860
863
861
861
861
854
854
856
854
851
852
852
852
853
853
858
868
887
914
945
977
1003
1019
1022
1018
1015
1031
1055
1089
1126
1140
1123
1069
980
881
787
719
678
660
643
634
627
619
613
610
608
607
610
611
616
618
625
635
650
674
707
739
772
795
813
823
833
836
836
838
838
840
838
842
842
843
845
847
848
849
848
848
847
844
842
840
839
838
838
837
838
834
832
831
827
827
821
817
818
817
816
816
815
810
809
806
801
798
797
796
795
795
796
796
794
792
790
787
783
782
786
789
790
792
798
802
807
804
806
810
812
815
815
820
822
829
835
844
847
850
853
856
854
857
857
859
861
864
866
865
871
868
869
868
868
867
866
865
866
868
872
874
873
874
869
868
866
858
861
863
860
862
863
865
868
867
865
861
856
854
856
856
853
852
853
856
858
859
859
855
853
854
853
850
850
852
853
856
857
857
855
856
851
854
853
852
850
855
856
859
862
863
862
862
854
853
851
847
848
851
856
858
860
863
860
857
856
855
851
850
850
849
854
857
859
865
866
867
868
868
870
869
870
870
875
875
881
886
892
896
900
897
897
894
891
887
883
881
877
880
884
889
888
893
895
891
886
879
872
864
860
857
855
851
849
843
842
837
835
836
838
837
840
837
833
835
831
829
829
828
828
826
831
834
836
837
836
833
833
828
827
827
826
823
831
831
833
835
831
824
826
819
816
821
831
852
881
916
942
965
979
975
969
967
974
1004
1043
1091
1126
1132
1103
1040
944
841
745
681
640
618
608
599
589
583
576
575
574
571
573
569
568
573
580
588
607
634
661
696
728
752
771
781
791
794
798
799
805
809
812
812
816
814
815
813
812
808
812
810
814
808
810
811
805
807
804
802
798
798
796
794
796
798
795
794
792
787
782
782
778
776
768
770
769
769
770
764
762
764
762
759
756
751
750
752
756
759
760
760
760
761
760
758
762
766
769
771
773
782
788
794
796
799
800
799
803
806
810
809
814
818
821
825
828
829
828
828
828
826
830
829
832
834
836
835
833
835
831
832
830
829
831
831
832
835
834
834
832
832
829
824
822
824
823
824
827
829
831
833
831
826
826
826
819
818
820
819
822
818
820
819
818
823
818
820
817
820
820
823
825
826
827
823
822
821
822
824
823
824
824
822
826
828
825
828
827
826
825
824
823
823
823
823
826
826
828
828
827
829
828
828
825
823
824
824
828
832
836
839
838
839
841
839
843
843
841
846
849
854
857
864
870
874
876
878
873
869
861
856
852
850
852
856
863
869
873
876
873
864
858
852
844
839
838
832
830
827
825
818
811
814
813
814
813
814
817
815
814
813
809
809
807
808
808
809
809
811
809
811
811
813
810
809
810
808
805
808
807
807
811
808
806
804
803
807
820
845
875
906
934
954
961
958
954
959
982
1020
1063
1096
1106
1076
1009
906
802
711
649
614
593
585
578
572
561
555
552
556
558
561
564
566
574
582
593
610
637
670
704
735
760
776
786
790
792
791
792
793
792
796
798
802
804
806
810
808
806
806
803
803
803
804
802
804
801
802
801
800
794
792
790
786
784
783
785
783
782
782
780
778
773
769
767
764
764
762
762
763
764
765
761
759
760
753
754
751
752
752
754
760
762
763
764
766
771
769
772
778
780
787
788
793
799
806
807
812
814
815
815
814
817
820
820
826
832
832
834
835
834
832
834
830
830
831
833
839
839
839
840
838
835
832
831
828
829
830
832
836
836
836
835
833
828
831
830
826
826
829
829
832
832
828
829
828
826
825
826
824
824
826
825
828
828
828
829
826
826
825
828
823
822
822
825
828
827
831
833
830
831
827
825
828
825
829
829
830
834
837
836
836
834
829
827
827
826
829
832
833
835
837
836
838
835
832
830
829
826
828
830
832
833
832
839
840
842
842
844
848
850
850
854
857
862
862
868
870
874
879
882
878
878
874
872
871
868
864
866
866
864
867
871
873
878
879
876
875
867
863
857
851
845
839
832
832
831
826
828
828
829
827
824
824
824
820
823
821
820
820
821
823
822
822
819
820
819
818
817
815
816
817
817
820
822
823
822
823
821
819
818
817
816
814
824
833
852
884
914
945
972
984
989
982
979
981
997
1023
1060
1093
1109
1106
1057
972
864
757
673
618
591
579
574
571
568
561
558
557
558
559
557
565
575
590
600
626
660
688
717
740
757
772
780
783
792
797
799
802
805
807
808
807
809
808
804
807
808
809
810
809
810
812
808
803
802
801
800
799
794
795
796
792
790
791
790
783
782
774
776
774
775
773
771
767
764
767
761
760
758
759
756
759
760
758
758
759
756
760
760
761
759
761
763
766
772
774
776
781
781
790
792
793
796
793
799
800
806
809
816
820
823
825
825
826
826
826
824
829
832
834
836
840
841
841
841
840
837
835
838
837
839
839
841
844
842
842
838
834
834
834
834
835
836
840
841
841
838
837
837
838
837
831
830
830
830
833
835
835
834
834
830
831
828
831
830
831
832
832
835
836
838
837
836
836
833
832
831
831
836
838
837
842
842
840
839
839
834
834
837
839
842
841
844
846
843
844
840
840
837
835
836
837
839
839
841
845
845
842
838
839
837
842
841
842
846
849
857
860
862
862
864
863
864
861
866
866
875
882
889
896
891
885
884
878
870
868
865
867
868
875
881
891
890
888
881
873
862
855
852
849
848
847
847
843
840
838
837
835
833
831
830
830
828
831
835
833
833
833
833
832
831
831
828
831
829
834
835
837
835
839
834
834
832
834
832
830
831
832
828
831
830
831
841
856
879
908
938
966
983
985
983
987
999
1027
1065
1099
1116
1098
1035
942
840
751
692
659
641
634
623
613
606
595
590
588
588
594
596
601
604
608
612
618
628
647
672
704
733
759
779
797
805
807
810
811
811
816
817
823
826
830
831
834
834
832
833
829
829
826
827
827
829
830
830
830
827
825
821
816
815
813
809
807
809
811
810
806
805
803
802
798
797
797
794
788
789
787
787
786
785
784
783
779
783
779
781
781
783
785
786
790
792
792
794
794
795
798
798
800
808
815
818
826
829
831
831
833
833
837
839
841
848
850
853
856
857
857
858
857
856
855
857
861
864
865
867
870
867
864
862
863
861
864
862
861
861
863
860
861
858
862
861
862
860
856
859
858
860
860
860
860
857
852
853
853
849
854
851
850
851
853
853
855
858
854
854
853
851
853
852
851
853
857
857
858
857
859
857
855
854
855
851
855
855
860
859
864
863
861
863
863
860
859
855
857
859
861
864
863
858
857
859
859
859
858
858
859
862
864
867
871
871
875
872
871
873
878
881
881
883
888
890
896
898
904
911
910
910
908
904
899
892
892
891
896
897
905
909
912
912
907
902
895
887
883
878
873
871
867
867
859
859
857
853
852
855
855
856
855
854
857
857
854
851
851
850
849
847
853
855
857
855
852
851
852
848
850
847
846
850
850
851
854
853
850
851
849
851
860
885
914
951
980
1003
1009
1009
1012
1029
1062
1098
1128
1123
1081
998
893
785
705
650
623
612
608
606
600
599
597
598
600
601
602
608
614
624
637
660
684
711
745
774
795
815
828
826
829
831
828
832
833
835
835
839
845
844
843
846
844
843
839
839
841
836
836
837
836
833
833
833
831
825
824
818
818
813
813
811
811
809
812
804
801
801
795
794
795
792
790
790
793
792
790
787
787
791
790
790
790
791
788
793
793
797
802
807
813
816
819
820
825
825
830
833
839
843
847
850
850
855
856
853
854
856
859
858
862
866
869
870
872
870
870
870
870
870
870
870
870
870
874
871
870
869
868
871
867
862
866
867
868
871
872
868
864
865
864
861
859
859
859
860
862
866
867
865
865
863
864
860
863
861
862
866
865
869
870
869
863
864
864
861
860
864
863
865
867
866
870
871
868
868
867
865
865
867
867
871
871
870
871
874
876
872
869
869
866
863
867
868
872
873
873
876
871
871
871
871
872
873
872
873
877
878
882
885
885
888
886
886
890
890
893
893
897
906
909
916
918
921
921
915
909
905
900
896
898
900
906
910
914
918
921
915
912
904
898
891
887
885
885
883
883
879
874
872
865
859
863
861
863
867
870
871
866
864
862
862
859
860
860
864
864
864
868
866
866
865
867
861
861
859
861
860
860
863
865
864
859
858
855
853
859
869
887
920
950
986
1015
1029
1033
1029
1023
1025
1039
1071
1106
1138
1148
1129
1073
987
886
795
726
682
661
647
642
637
632
629
626
625
624
622
622
619
624
628
639
653
672
702
731
759
785
805
818
829
836
836
838
841
846
846
854
855
856
857
854
856
853
855
853
853
856
860
859
857
855
852
850
848
844
843
841
842
841
843
838
836
833
826
824
823
820
814
811
814
814
815
810
808
807
804
797
795
795
797
794
795
797
799
804
805
804
804
801
802
803
808
806
813
817
823
826
833
834
837
840
842
849
851
852
856
863
866
871
873
873
874
873
871
873
872
878
879
882
883
884
883
882
881
881
879
878
878
877
875
882
881
882
883
880
878
877
878
877
873
873
873
875
877
878
879
879
876
871
872
870
872
872
872
874
872
872
872
870
866
867
871
869
867
868
869
873
873
876
878
876
876
873
870
873
870
872
874
874
876
876
877
875
875
872
873
870
871
870
872
874
877
881
879
883
878
879
877
873
875
879
880
883
886
891
892
894
893
896
900
900
897
898
902
908
914
917
922
927
929
923
920
912
910
903
900
901
904
912
921
926
928
926
920
915
906
897
892
888
886
885
884
881
879
873
869
861
860
863
865
864
868
871
871
869
867
865
862
861
862
862
862
865
866
865
868
868
868
869
867
862
863
864
866
866
867
866
860
862
856
859
869
886
917
950
981
1006
1015
1013
1010
1014
1036
1063
1112
1143
1152
1126
1060
965
863
778
714
678
655
645
636
627
617
612
611
615
616
620
621
623
627
634
642
655
675
704
733
764
792
811
827
837
843
845
841
847
845
847
850
857
855
860
859
863
862
857
856
855
854
854
855
855
858
854
850
851
849
847
841
839
835
833
833
837
830
829
832
828
827
822
821
814
811
811
806
810
810
812
810
806
804
803
803
801
799
798
799
801
804
806
808
809
811
813
814
818
818
816
821
826
834
841
847
850
851
849
851
853
853
858
861
865
868
873
874
875
874
874
876
875
876
872
877
879
878
880
881
881
880
876
875
874
872
873
872
876
877
879
878
875
874
872
867
862
865
865
867
867
866
869
866
866
866
865
864
863
857
861
862
862
864
865
865
861
863
863
862
859
857
858
864
863
865
868
868
866
866
865
862
860
857
862
862
866
864
868
868
868
866
865
865
862
865
864
865
867
867
867
867
867
867
864
862
860
863
863
866
868
870
872
876
881
880
881
881
881
880
884
886
892
894
899
903
908
911
911
908
901
896
892
892
888
889
891
893
897
900
900
905
903
897
893
881
878
873
867
864
865
861
852
850
850
848
849
849
850
850
853
849
850
846
845
844
843
843
843
844
844
845
842
846
844
845
841
842
842
841
843
845
842
842
841
842
841
843
854
874
900
929
960
984
995
995
992
996
1016
1049
1087
1114
1114
1079
1004
903
800
721
666
639
626
622
610
603
597
590
587
587
593
592
596
601
607
616
625
644
667
697
727
752
780
795
810
815
820
821
821
825
827
828
829
831
834
835
835
836
833
830
833
824
826
824
826
826
829
825
824
824
825
821
818
813
811
810
808
805
806
802
803
801
797
794
793
788
785
786
784
787
786
786
787
787
787
782
783
783
777
779
779
780
787
791
790
795
796
797
799
800
803
807
811
817
824
828
832
835
839
841
841
840
839
842
844
848
851
854
856
858
856
857
854
853
851
853
851
853
858
858
860
858
858
858
856
854
853
853
847
846
853
852
851
855
855
855
855
854
853
853
850
851
851
853
852
853
852
851
851
850
845
845
842
846
845
845
849
851
851
850
849
847
845
842
842
847
847
853
854
852
852
850
849
846
849
847
844
843
845
848
851
851
853
853
852
852
848
849
847
849
853
854
854
856
855
856
849
852
848
852
851
857
856
861
864
870
871
869
871
871
872
872
874
876
884
886
898
905
907
906
900
895
889
885
882
881
881
884
891
896
902
903
902
894
888
874
864
859
854
855
859
858
856
851
848
848
845
844
844
843
842
846
847
847
846
846
845
840
840
838
839
841
842
844
843
847
844
844
840
840
835
833
837
834
840
840
837
836
837
834
831
848
863
890
921
953
983
998
999
992
988
1000
1022
1060
1099
1125
1128
1096
1029
931
836
754
691
656
638
624
614
603
596
589
583
584
585
591
592
595
595
602
613
622
643
675
708
742
768
787
802
807
810
809
811
810
818
817
824
826
829
832
832
834
828
828
826
828
825
825
824
826
827
828
827
824
819
814
814
810
808
809
808
811
807
808
803
799
795
789
788
787
785
784
783
783
785
784
784
783
781
775
774
774
772
774
776
779
780
781
780
782
783
782
780
784
789
792
798
799
803
806
807
812
818
821
823
826
827
828
833
835
841
844
845
848
845
849
847
848
849
853
854
856
857
857
854
858
854
856
850
850
853
855
856
857
860
859
860
856
854
853
852
847
850
850
846
851
853
854
850
850
848
847
844
843
842
845
849
850
851
852
849
850
847
849
848
846
845
846
846
846
850
849
850
850
849
843
845
846
845
847
849
850
852
852
852
849
851
849
847
846
844
846
849
851
854
853
852
848
848
851
848
850
847
852
852
853
854
858
856
858
862
859
861
866
869
869
871
874
877
880
881
889
890
895
896
902
902
899
898
893
888
881
881
879
883
886
889
892
895
894
897
893
881
878
871
868
862
855
853
850
849
847
847
846
847
847
846
845
844
841
842
842
840
839
842
841
845
846
843
844
843
839
839
840
841
838
842
841
844
844
844
841
834
834
834
839
854
872
905
938
967
986
989
985
981
983
1002
1034
1078
1112
1130
1111
1050
954
847
752
683
641
620
610
604
602
598
597
598
599
601
599
599
606
609
619
633
657
686
719
749
776
791
806
816
819
820
823
824
830
832
838
839
838
838
835
835
834
835
833
835
834
835
836
837
837
839
831
826
824
820
817
816
817
818
818
817
815
814
812
808
805
800
797
794
799
798
795
795
794
792
790
789
789
783
785
783
785
786
787
791
797
795
794
798
797
801
801
803
808
815
817
827
828
833
835
840
839
844
843
847
847
853
856
858
863
865
862
865
862
861
859
859
863
865
864
869
870
870
869
867
867
860
864
864
862
864
864
866
866
866
867
863
862
860
859
857
856
860
860
860
862
861
861
858
858
852
855
855
853
856
860
859
864
859
857
855
854
851
850
850
853
856
858
859
860
859
860
858
858
856
858
857
857
856
864
862
863
861
860
862
857
860
862
859
862
861
864
864
865
865
864
862
862
861
860
859
862
867
867
871
874
874
875
877
875
873
876
876
879
881
887
893
900
905
908
908
906
900
895
889
884
879
883
889
894
899
905
904
902
899
895
888
878
872
864
864
871
866
865
860
855
849
849
845
843
846
848
851
853
852
845
843
841
840
844
842
844
845
844
848
847
848
848
846
845
844
844
844
849
845
845
844
846
840
845
843
850
867
896
928
963
996
1018
1022
1022
1014
1017
1037
1070
1100
1116
1097
1033
936
825
731
668
629
612
605
599
592
588
584
580
587
587
590
596
600
606
615
628
648
679
714
746
774
799
813
824
826
824
825
827
828
828
833
834
835
835
835
837
836
835
836
834
832
832
832
830
831
829
833
834
832
826
824
818
816
811
809
806
810
811
810
808
805
802
800
794
796
792
792
787
790
791
786
790
786
783
783
782
781
779
781
782
782
786
788
793
795
798
802
803
809
812
813
816
826
831
836
841
843
846
845
849
847
845
848
849
855
855
858
861
859
861
860
859
862
864
863
864
865
868
866
867
863
865
863
863
858
858
856
857
859
860
861
863
861
858
860
855
854
853
852
851
852
852
856
858
860
857
856
854
851
853
851
849
852
856
856
856
855
855
855
855
855
855
853
850
853
854
856
858
857
859
857
853
853
853
853
852
856
856
859
860
858
856
855
853
854
856
853
852
854
856
859
862
862
861
861
861
857
861
859
861
862
868
866
872
875
878
878
876
875
876
876
879
883
889
898
904
906
904
898
894
888
885
879
880
884
891
898
902
906
903
896
885
878
870
861
860
859
858
861
857
853
850
849
845
842
843
842
845
844
845
845
849
846
848
847
842
839
840
839
840
840
839
844
847
844
844
844
844
845
842
839
839
837
840
835
841
848
862
886
921
954
984
1003
1013
1012
1010
1019
1043
1074
1110
1135
1134
1105
1036
943
841
754
695
667
653
643
633
624
615
608
605
604
605
601
603
610
613
619
625
644
662
689
720
750
771
792
810
817
821
821
822
822
818
824
826
826
827
832
832
832
837
835
833
833
833
831
829
827
824
825
828
826
827
823
816
816
815
812
811
806
805
803
801
800
802
798
794
793
791
784
784
780
778
779
781
783
782
779
778
779
776
776
773
772
770
775
780
783
789
790
793
792
793
797
802
803
807
813
820
826
829
831
832
835
834
838
838
842
844
847
850
854
855
855
859
858
857
857
857
853
858
858
862
865
865
866
866
863
863
859
859
859
856
861
861
864
860
860
861
857
860
857
856
852
850
857
859
859
860
861
859
858
856
856
854
851
851
851
854
855
858
857
857
855
855
851
851
855
854
857
860
860
858
859
860
857
854
852
853
853
853
857
856
857
858
863
860
859
857
856
854
856
855
858
863
864
865
863
863
861
859
856
858
859
861
868
868
874
875
875
881
881
882
882
880
880
885
890
896
902
913
911
913
911
906
900
893
887
883
884
887
892
901
907
911
910
904
897
888
877
871
868
868
868
867
865
862
856
854
851
847
846
847
848
849
849
854
853
852
850
848
845
845
847
845
847
850
849
853
852
852
846
844
848
849
850
846
848
849
850
845
843
836
838
848
856
879
906
938
968
989
996
999
990
992
1006
1037
1081
1120
1146
1145
1097
1012
907
808
725
671
641
624
613
609
603
601
603
606
607
608
611
613
618
629
644
666
694
725
756
780
799
811
823
829
829
828
829
832
833
836
838
842
845
846
844
843
841
839
838
837
834
838
837
836
837
835
834
832
834
829
826
821
820
816
816
816
817
818
816
814
810
805
802
798
795
792
792
795
797
796
795
793
789
787
785
784
783
786
788
792
796
800
802
802
804
808
807
808
815
817
824
828
830
837
840
844
848
847
849
850
854
855
860
861
868
868
870
870
868
869
871
872
869
871
872
876
875
878
873
875
871
871
871
868
866
867
869
873
871
875
874
875
875
874
870
867
865
862
865
864
866
867
868
870
869
868
866
865
866
863
864
865
865
866
866
866
865
869
868
867
867
868
870
869
869
869
870
870
871
870
869
867
865
869
871
874
875
875
874
873
873
869
865
869
868
870
873
874
873
878
877
877
876
875
877
875
878
880
885
887
892
895
899
898
899
898
898
905
910
918
921
922
921
918
911
906
902
901
898
900
905
911
917
920
917
912
902
891
885
883
878
877
873
871
873
870
869
869
869
866
863
862
862
861
862
860
861
861
863
862
863
864
863
859
860
859
859
860
862
863
864
867
870
869
867
866
859
855
857
854
860
871
893
922
955
988
1017
1039
1044
1036
1027
1030
1046
1077
1115
1146
1145
1109
1029
923
815
725
663
630
616
612
611
613
613
613
609
608
608
606
608
614
625
640
659
685
713
742
770
794
812
824
833
834
835
839
842
845
853
856
852
850
853
853
850
855
854
855
857
857
857
857
856
847
845
845
847
847
846
845
847
842
841
836
833
832
827
825
819
818
815
819
820
823
818
814
813
806
806
801
801
800
800
803
802
807
806
807
810
806
805
809
811
811
814
816
820
823
827
830
836
840
839
845
846
846
854
857
862
864
865
867
868
869
869
871
877
876
880
877
882
883
883
883
886
884
882
880
882
882
884
885
889
891
892
890
888
887
884
884
882
883
883
882
884
884
884
885
883
880
878
876
876
876
877
875
876
880
881
880
876
878
877
875
875
875
876
876
875
878
881
880
881
877
876
875
875
877
878
877
881
884
880
879
880
878
875
874
878
875
877
879
880
882
885
880
880
880
878
879
874
875
876
878
879
884
884
886
885
885
887
884
887
891
894
902
903
906
906
908
907
905
908
916
919
925
927
925
923
917
912
906
906
908
911
916
920
925
924
922
919
906
900
894
891
886
884
878
876
873
872
874
877
877
878
877
876
874
873
872
867
867
864
870
871
871
870
874
872
871
872
869
870
868
865
869
870
873
873
870
867
865
859
854
857
863
875
896
931
968
1003
1025
1034
1034
1029
1037
1060
1098
1132
1153
1136
1075
981
877
787
720
678
653
644
641
641
634
632
634
633
628
628
625
631
634
644
663
686
717
746
780
807
826
837
844
847
846
849
850
854
856
860
862
865
865
864
866
864
864
859
857
860
862
863
860
856
856
855
850
846
844
841
843
841
840
839
840
838
836
831
826
823
821
817
816
816
813
814
818
818
816
814
810
809
807
803
805
807
809
814
816
819
820
822
822
823
822
826
828
833
839
844
847
855
857
861
866
866
867
868
872
874
877
880
882
886
885
886
889
887
887
887
885
887
892
895
896
895
896
897
893
892
891
889
890
895
893
895
895
896
896
894
890
889
888
883
880
884
885
886
888
888
887
887
885
883
880
879
877
878
879
879
884
886
883
883
884
882
879
882
883
884
884
887
886
887
887
886
888
888
883
883
884
885
885
889
886
886
888
886
886
884
884
885
885
888
890
890
894
895
897
898
897
899
897
899
901
904
907
910
912
914
917
917
923
925
930
931
934
934
935
930
925
920
918
915
909
911
916
919
926
925
929
929
925
916
903
899
893
888
883
882
880
878
878
878
876
877
876
877
874
870
866
863
863
866
866
869
871
870
870
869
865
862
857
859
862
862
864
864
864
865
867
866
866
866
864
862
858
857
853
854
859
873
895
922
949
978
995
998
1001
1002
1021
1049
1090
1136
1163
1165
1123
1040
938
835
754
702
673
658
649
639
625
617
607
607
604
602
606
607
608
616
623
635
650
668
692
721
748
775
795
814
828
836
840
846
845
849
849
852
854
854
856
858
859
859
860
861
859
858
855
851
852
848
848
850
847
848
850
850
846
842
845
839
835
832
831
825
825
825
825
824
822
820
818
813
814
807
808
806
809
808
806
808
803
801
800
799
797
797
798
803
804
808
813
817
818
820
818
818
820
821
831
836
842
847
850
855
855
859
861
861
864
860
860
864
865
870
876
880
880
881
880
880
878
879
879
879
878
880
882
886
885
884
883
881
879
879
877
873
876
878
880
881
878
876
872
872
874
873
872
872
872
873
873
872
869
869
868
866
866
865
867
869
869
872
872
875
874
874
872
871
868
866
866
868
869
872
874
873
876
875
874
871
866
868
870
869
872
873
875
876
874
876
873
874
874
873
873
876
875
876
884
887
888
893
893
893
894
892
894
895
900
909
916
922
923
925
919
912
906
900
896
897
898
905
913
918
922
919
912
901
889
879
871
871
870
871
870
870
868
864
861
860
854
850
850
849
852
850
856
858
856
858
857
854
852
851
850
846
851
852
855
857
853
853
853
852
852
852
849
851
851
849
849
846
858
869
892
920
951
978
998
1005
1001
1000
1012
1038
1077
1123
1148
1145
1101
1023
910
804
714
657
628
618
607
602
592
586
579
576
576
575
579
584
586
594
602
618
633
661
686
717
744
773
795
811
821
826
827
824
831
830
834
833
834
838
834
840
840
842
843
841
839
834
831
833
829
827
831
826
825
824
821
818
814
812
810
807
805
802
803
803
802
805
803
796
793
791
789
785
786
783
782
782
782
785
782
779
781
780
776
779
778
782
783
786
790
792
795
791
799
797
802
805
805
813
819
823
831
838
835
837
838
837
838
837
839
841
844
852
853
856
855
857
855
857
852
853
854
853
858
858
859
860
858
859
858
859
856
856
857
859
860
859
859
855
856
852
848
849
850
849
847
844
845
847
848
851
849
849
845
842
840
840
842
846
847
849
850
853
854
853
854
852
847
845
846
847
847
847
849
854
853
854
852
852
848
846
848
848
848
848
851
852
851
852
850
849
848
845
846
847
850
850
856
856
858
852
852
852
851
851
855
855
865
867
870
872
872
872
872
870
871
870
876
883
893
898
900
901
894
887
882
876
873
875
875
883
889
895
898
900
898
889
880
868
862
856
855
854
855
851
850
848
842
841
841
839
836
837
836
838
839
841
840
843
842
840
837
837
832
833
831
835
835
838
841
841
839
840
838
837
836
832
832
828
830
827
831
841
857
881
914
952
985
1009
1016
1015
1014
1025
1048
1084
1117
1137
1122
1066
973
863
764
688
644
618
606
603
599
592
587
583
578
579
577
578
578
582
591
605
619
641
668
699
728
755
777
795
804
810
813
815
817
818
821
822
825
820
820
821
825
824
828
831
830
830
828
827
824
823
818
817
821
821
819
820
815
813
810
807
804
801
798
794
795
797
796
798
793
788
787
783
780
776
775
774
777
778
780
779
780
778
777
774
771
774
771
772
775
776
777
784
786
790
794
795
798
802
802
807
812
817
822
831
827
831
836
841
843
843
844
845
847
852
856
855
857
857
856
857
855
