960
960
960
960
960
960
960
960
1019
1077
1140
1209
1286
1358
1426
1472
1487
1461
1378
1250
1122
994
866
738
696
747
803
840
853
844
825
806
790
784
788
787
793
795
799
797
793
791
789
787
787
787
795
797
800
804
809
806
804
803
802
802
801
802
809
808
814
817
817
819
820
822
824
824
828
832
837
840
845
847
845
851
856
858
860
862
869
877
885
893
902
909
913
921
921
926
927
930
930
935
939
945
953
956
957
956
954
949
946
941
936
928
925
918
911
903
892
884
876
864
857
845
835
826
820
814
812
806
800
800
795
790
783
773
772
772
775
779
781
781
778
776
775
772
771
769
770
768
772
772
777
776
776
777
775
775
774
770
771
775
778
782
783
781
778
777
774
771
771
770
770
771
774
776
779
777
775
772
768
764
764
763
763
767
766
765
765
764
763
762
759
761
756
756
755
759
758
761
763
765
763
764
763
760
757
757
752
753
754
753
756
755
754
749
747
747
751
751
750
752
755
759
763
770
770
771
769
763
759
758
759
764
770
773
776
777
782
785
785
784
783
784
784
783
781
782
781
778
775
772
768
764
762
754
749
747
744
744
744
744
746
749
747
748
746
742
739
738
740
740
744
747
745
745
745
749
756
766
783
815
850
899
948
1003
1051
1103
1157
1219
1275
1310
1314
1265
1157
1029
901
773
645
610
644
696
746
777
787
784
776
767
760
754
752
752
751
751
751
745
745
748
748
751
757
763
766
767
765
764
766
766
765
769
772
777
779
779
781
782
778
781
785
786
788
793
797
804
809
811
815
817
816
815
819
819
821
828
835
839
849
853
858
862
870
874
878
873
884
883
887
892
897
902
904
904
904
904
903
900
901
896
896
894
891
884
874
870
858
847
839
829
825
822
813
811
810
808
801
798
793
788
782
777
776
778
779
780
781
780
782
778
777
775
774
774
773
774
776
778
781
784
783
784
781
780
786
784
786
787
791
794
794
796
795
795
793
791
793
794
794
794
792
792
793
795
796
800
797
797
797
791
792
794
795
795
797
796
789
790
787
785
786
786
782
783
788
789
792
790
789
787
789
787
785
784
784
783
782
782
789
789
791
794
791
786
783
777
776
780
783
784
786
783
785
784
779
783
781
782
783
784
792
796
799
800
801
803
806
806
803
803
802
801
805
806
809
814
814
821
825
827
830
831
826
823
821
825
825
827
826
823
817
811
809
802
795
793
787
788
787
784
782
782
780
783
782
783
783
784
784
784
787
789
789
790
783
778
781
783
786
797
820
850
892
952
1020
1094
1172
1250
1328
1399
1451
1487
1499
1488
1438
1337
1209
1081
953
825
697
690
744
803
848
864
856
841
820
803
792
792
791
795
794
797
796
795
797
799
797
800
803
804
804
800
801
804
807
811
812
816
816
816
816
818
816
816
819
820
823
824
829
834
833
838
840
841
845
849
852
853
856
859
866
870
880
884
892
892
892
895
898
903
911
921
929
941
948
953
957
958
959
965
969
974
978
982
983
986
982
987
979
979
974
968
963
954
948
937
927
917
901
888
874
861
847
838
829
826
825
820
820
820
816
814
811
806
803
799
799
796
796
797
798
802
802
802
800
795
797
797
795
798
798
801
802
804
805
802
802
802
803
805
803
802
805
807
808
811
812
808
809
806
805
802
801
803
801
799
803
805
809
802
803
801
797
793
792
793
794
795
796
800
797
796
796
792
788
788
789
787
787
787
788
789
786
787
786
787
785
785
784
785
784
786
786
786
784
783
782
782
780
778
777
779
782
785
789
797
799
803
805
801
800
801
798
802
802
804
808
811
816
818
823
822
824
821
822
824
823
824
822
822
818
810
807
806
802
803
799
792
788
785
779
778
778
774
771
769
769
770
767
766
771
771
776
779
779
782
781
779
776
778
783
791
810
839
880
941
1011
1087
1173
1259
1346
1419
1476
1511
1523
1512
1468
1382
1254
1126
998
870
742
674
723
784
835
860
860
846
820
802
791
787
787
791
794
797
801
795
794
791
789
789
790
791
792
801
804
802
804
804
806
814
813
816
813
814
814
814
814
818
820
824
830
834
838
840
838
839
838
842
846
851
856
859
865
870
875
884
888
889
889
898
901
908
916
924
934
944
951
959
962
963
968
970
969
973
974
978
978
979
976
978
976
969
962
953
946
935
927
914
904
894
881
872
862
848
837
825
818
811
813
809
809
806
807
803
799
799
794
792
791
791
789
790
789
789
797
792
789
789
789
788
789
792
797
798
802
804
800
802
796
794
795
794
794
792
795
796
796
795
796
795
800
797
794
794
790
793
792
795
794
795
794
790
786
781
779
777
782
779
780
784
784
783
785
783
779
778
777
774
772
768
773
775
779
777
775
772
769
768
763
762
762
767
767
769
772
771
772
770
769
766
764
765
766
768
773
776
780
785
787
782
781
781
779
782
782
788
792
796
800
803
805
806
804
796
795
788
782
781
781
778
781
776
772
767
760
755
754
751
747
746
743
744
749
747
751
751
750
748
746
743
743
744
746
750
756
763
780
796
823
867
929
1009
1100
1207
1311
1404
1469
1490
1450
1340
1212
1084
956
828
700
629
699
768
814
828
819
799
774
753
745
743
748
754
757
762
762
764
757
759
754
756
754
757
756
756
762
763
773
773
772
775
775
774
775
776
778
780
787
787
794
798
799
799
803
803
806
808
811
814
819
822
829
829
834
833
844
849
856
860
862
869
874
883
893
902
904
905
905
908
913
915
916
923
929
934
938
938
938
935
930
925
920
910
902
889
881
876
867
857
841
831
825
817
804
793
785
779
776
772
769
765
762
757
754
748
748
745
744
747
748
745
751
751
751
750
745
746
743
741
741
744
749
751
754
755
755
754
755
753
754
753
751
750
752
755
756
758
758
757
755
752
751
751
749
751
754
754
754
752
745
743
740
740
737
741
738
737
738
743
747
747
747
743
742
740
740
735
735
735
738
737
740
739
743
741
739
742
739
737
736
735
736
736
737
737
739
736
738
739
744
743
746
752
758
759
763
762
762
762
758
759
759
758
759
757
763
769
775
781
783
785
782
778
775
769
764
763
765
765
768
765
761
757
750
743
742
741
737
738
737
737
740
738
738
739
740
739
739
737
739
742
744
747
751
756
768
778
799
831
886
946
1027
1118
1210
1303
1393
1448
1461
1424
1319
1191
1063
935
807
679
605
670
740
792
814
815
804
785
771
756
752
750
753
762
763
765
765
764
763
764
766
767
767
769
772
773
779
781
781
782
780
779
780
782
786
788
797
803
807
813
814
814
813
811
812
812
812
815
825
830
836
841
851
855
858
862
865
866
867
877
885
893
902
908
915
920
923
925
931
932
935
941
945
946
950
948
946
943
940
936
930
924
917
912
903
895
889
882
873
863
851
839
829
816
808
799
793
789
790
785
781
778
773
770
767
765
759
761
760
761
768
767
769
771
768
766
768
763
762
765
772
775
777
779
779
777
779
778
779
777
774
774
776
775
778
779
780
779
777
776
774
773
770
772
774
774
776
771
772
771
769
766
761
760
758
760
760
760
763
766
764
764
764
762
758
756
754
752
755
757
759
760
760
761
758
756
756
753
754
756
758
759
758
759
758
759
756
756
752
751
749
750
748
755
760
762
766
766
768
771
771
767
769
767
768
772
777
778
781
782
784
783
783
787
793
799
800
799
799
793
787
782
776
772
770
768
766
762
756
753
751
748
749
744
740
744
743
746
744
744
742
744
750
748
750
746
745
748
750
759
772
796
832
878
936
1007
1084
1166
1258
1349
1422
1472
1486
1454
1358
1230
1102
974
846
718
649
703
766
810
826
824
806
785
768
762
756
759
759
764
762
763
760
761
764
764
765
771
771
774
772
771
770
770
772
772
776
781
784
790
791
790
789
791
789
790
793
795
799
808
808
818
818
821
821
822
824
825
829
834
837
845
853
860
866
872
877
884
890
896
899
905
913
916
922
924
934
939
939
944
944
945
948
951
952
955
957
950
944
937
927
921
914
905
894
884
878
868
864
853
843
833
817
807
800
791
785
781
779
778
778
777
773
772
772
770
771
767
767
765
764
766
766
766
771
769
769
768
770
768
770
772
775
775
779
780
780
779
777
773
770
769
768
771
773
777
779
781
775
773
772
773
770
769
768
768
767
768
770
771
773
769
767
764
758
756
754
755
757
762
761
762
758
757
756
756
756
755
749
748
749
750
748
757
757
755
755
752
751
748
748
747
751
756
757
757
753
752
754
752
757
758
759
762
765
768
771
773
772
772
770
774
772
780
780
785
789
793
797
798
796
790
782
777
772
768
769
768
767
770
767
765
758
749
742
742
736
734
736
742
746
749
753
751
753
749
746
742
741
739
741
744
747
753
760
772
787
810
837
876
924
979
1042
1112
1192
1279
1360
1422
1453
1432
1347
1219
1091
963
835
707
613
661
729
780
813
820
806
786
765
754
745
747
748
756
757
757
755
752
754
756
754
756
757
761
764
767
770
771
770
769
768
768
766
768
770
772
774
781
783
789
792
793
792
794
797
795
799
803
804
811
816
823
826
830
830
831
832
833
841
847
858
865
872
881
883
887
890
896
899
905
909
909
910
915
920
921
926
926
922
921
916
915
911
909
904
899
894
884
874
864
853
845
835
822
814
806
801
792
790
788
780
776
770
765
762
760
758
757
759
757
757
760
757
757
755
755
755
753
756
756
758
760
761
762
762
761
760
758
757
754
750
754
757
763
765
769
771
769
768
765
761
762
760
762
763
765
764
766
763
763
762
760
762
761
761
757
755
751
750
749
747
748
745
746
744
744
742
740
744
743
744
746
747
744
744
742
739
741
740
741
744
743
746
748
747
747
745
741
741
742
737
734
736
737
738
743
748
749
757
760
758
758
757
756
756
755
760
761
763
762
762
763
766
774
776
777
777
780
778
777
774
772
764
759
758
761
762
756
757
753
748
744
738
733
732
729
728
728
731
731
733
735
740
742
741
739
735
731
734
741
751
771
799
837
891
958
1033
1118
1200
1282
1353
1404
1437
1443
1406
1317
1189
1061
933
805
677
625
677
734
778
795
795
780
762
750
741
739
740
742
742
743
744
745
744
747
746
754
758
759
759
758
756
759
757
755
758
760
763
767
772
771
773
773
771
776
777
779
786
791
798
802
805
806
806
809
811
816
818
823
829
833
834
841
848
855
858
863
862
871
878
882
889
895
903
905
911
911
910
907
904
903
900
901
903
905
899
903
897
889
879
866
855
843
835
827
821
812
804
803
799
792
786
782
774
773
767
765
766
765
765
767
765
763
756
756
757
756
755
755
759
762
764
766
766
765
763
759
761
761
761
762
764
769
770
766
768
768
770
769
767
764
765
767
768
768
773
774
773
773
771
768
765
766
766
763
765
763
767
768
767
768
762
759
758
757
760
760
763
764
764
762
761
757
756
757
757
755
756
755
757
761
761
762
761
765
761
759
760
757
755
757
756
759
759
762
764
764
765
766
768
768
771
774
776
777
779
780
782
782
780
779
782
781
785
788
792
799
800
799
801
795
792
789
783
781
779
781
779
782
780
777
772
768
761
755
751
747
746
747
748
750
753
756
758
758
755
755
753
757
755
758
761
766
777
797
824
866
922
994
1072
1161
1254
1350
1428
1481
1502
1479
1405
1282
1154
1026
898
770
652
668
720
773
811
827
824
807
785
771
762
762
758
764
770
774
774
773
773
771
772
770
770
772
771
775
778
781
784
786
787
787
785
787
786
786
788
791
792
797
803
808
809
810
815
814
817
816
821
822
829
833
840
850
858
861
862
865
868
877
875
880
888
895
906
913
915
919
921
927
927
930
929
931
932
931
929
927
928
923
916
907
901
893
883
872
862
853
843
840
829
821
811
803
794
787
785
779
781
780
778
777
775
771
771
768
768
765
762
761
762
766
768
768
769
771
769
766
767
766
765
768
768
771
772
775
773
774
776
774
774
774
771
771
768
771
771
775
780
780
778
776
773
770
767
767
767
771
769
770
765
764
761
760
765
766
761
761
759
763
763
766
769
770
768
764
762
760
758
757
758
760
760
759
757
759
759
759
759
760
757
758
758
760
763
764
764
761
764
761
758
755
753
754
760
769
776
779
782
782
782
778
778
776
775
778
782
786
790
796
797
796
798
797
795
791
788
787
786
786
783
788
785
783
781
776
769
764
758
753
753
751
751
754
757
756
758
755
755
752
751
751
752
757
760
763
760
760
762
766
773
789
812
842
884
935
987
1043
1099
1157
1224
1293
1352
1391
1393
1339
1228
1100
972
844
716
642
669
719
773
809
820
815
804
790
779
775
772
775
774
777
774
773
771
771
772
776
777
780
776
780
780
779
783
786
785
789
792
790
798
796
802
799
800
798
802
804
807
809
813
816
821
824
827
829
833
837
840
845
846
849
853
856
861
867
874
879
882
890
894
901
903
908
914
921
926
937
942
948
952
954
955
954
954
952
954
959
961
966
965
961
957
948
935
925
915
904
898
890
882
878
871
861
852
845
838
834
827
825
826
823
822
818
815
814
810
808
809
808
807
806
806
809
809
814
816
817
814
811
810
807
808
809
812
815
817
821
822
824
823
820
820
819
819
818
818
821
827
830
831
827
825
822
822
820
817
816
818
817
816
817
820
820
818
814
814
811
812
811
812
813
816
818
815
813
810
808
807
809
806
807
807
809
810
814
813
813
812
807
805
805
806
807
808
806
809
816
813
814
810
811
813
815
819
826
826
832
832
836
840
840
837
836
832
834
836
841
846
850
850
852
849
849
849
846
843
843
835
832
828
825
820
819
815
812
812
807
804
798
795
798
799
805
806
808
807
809
805
803
798
797
797
798
807
818
835
858
888
930
982
1048
1121
1202
1290
1371
1444
1493
1511
1487
1404
1276
1148
1020
892
764
689
739
807
864
892
894
879
855
832
817
810
807
808
812
815
818
819
821
823
824
826
826
824
824
825
821
820
823
821
826
827
831
832
832
832
834
837
840
842
844
845
850
850
851
854
850
851
856
858
862
864
869
876
883
888
891
895
897
901
902
908
914
921
926
934
938
949
956
960
963
966
966
971
973
975
979
981
988
991
991
987
984
977
973
966
958
946
940
933
924
916
907
899
887
876
873
863
860
856
850
847
842
839
834
829
826
819
819
821
816
817
823
826
828
828
830
826
827
823
822
820
822
819
822
819
822
822
822
821
822
823
825
824
824
829
828
830
832
830
828
826
820
821
822
822
821
819
822
822
826
830
828
828
823
821
818
817
818
821
822
824
826
822
817
812
812
814
813
814
818
816
814
817
816
818
820
819
814
812
813
812
814
815
815
814
816
815
810
810
809
808
806
807
808
811
814
819
827
834
836
839
841
838
839
838
836
834
835
837
840
845
853
854
857
856
852
849
847
846
846
842
841
839
838
836
831
827
824
817
810
807
804
804
805
802
803
799
798
800
799
801
799
803
804
806
807
810
809
808
814
825
848
885
942
1016
1111
1215
1322
1417
1486
1519
1504
1427
1299
1171
1043
915
787
663
718
793
855
886
887
869
842
822
807
802
803
807
811
817
813
814
813
813
814
812
815
813
814
819
822
821
823
827
828
828
828
829
831
831
837
843
845
847
851
850
854
851
849
852
853
856
860
864
869
876
881
887
889
896
898
903
909
913
920
929
933
939
941
943
946
950
957
962
964
970
976
980
984
987
986
985
985
981
977
974
967
963
956
953
947
938
930
920
910
903
892
883
875
868
861
855
852
848
844
839
835
831
830
829
825
826
828
826
827
828
827
825
819
816
816
817
817
814
812
818
822
822
823
822
822
821
823
823
823
822
825
823
825
825
821
824
823
821
819
820
822
825
825
824
826
828
825
823
820
820
818
815
815
812
814
810
812
816
813
812
813
809
807
805
803
801
803
803
804
806
801
799
798
797
795
796
800
801
804
802
799
800
800
799
799
794
793
788
788
790
795
797
799
799
803
801
802
804
804
810
812
814
815
815
817
814
816
813
816
816
819
823
824
827
831
836
837
838
833
833
829
823
821
817
814
813
815
812
808
807
799
792
783
777
773
771
770
775
780
783
786
785
787
790
790
792
788
788
785
785
780
784
789
802
829
863
914
978
1053
1144
1238
1338
1424
1486
1521
1526
1493
1410
1282
1154
1026
898
770
678
733
793
837
853
847
827
804
787
780
781
781
788
791
795
795
795
792
792
792
790
791
789
791
792
797
800
804
807
808
809
806
807
807
809
811
807
811
811
817
822
827
831
835
838
838
839
841
842
848
852
860
865
869
872
875
878
879
881
889
897
903
912
917
926
930
930
932
931
932
935
938
940
943
943
944
946
944
940
935
930
921
909
903
891
884
876
866
861
851
843
836
828
821
815
810
806
806
805
800
803
798
797
797
792
792
790
791
791
791
797
799
803
800
801
800
795
797
797
798
796
799
802
803
807
809
807
806
803
799
800
801
799
798
800
800
805
806
806
804
802
800
798
797
796
798
795
794
793
793
793
791
791
790
786
789
788
792
791
791
793
794
791
787
787
785
783
786
785
788
787
790
788
785
785
784
785
782
783
780
781
783
784
786
790
788
787
786
784
777
782
784
788
791
796
802
805
805
804
803
804
801
803
801
805
808
813
817
823
826
827
824
819
816
813
812
813
813
814
814
810
809
804
799
793
788
785
781
777
773
770
771
772
775
781
783
779
777
779
777
779
780
776
775
778
782
792
808
830
861
901
954
1025
1103
1190
1286
1375
1445
1483
1487
1442
1346
1218
1090
962
834
706
689
744
800
845
862
860
843
827
810
798
794
794
799
799
805
806
804
802
800
802
801
804
807
808
813
817
817
816
816
817
817
818
818
820
823
825
829
833
837
832
836
838
840
842
847
851
855
859
863
872
871
874
875
880
876
880
884
890
898
905
914
924
934
938
941
942
941
944
945
947
953
956
956
960
963
960
960
960
957
955
949
944
939
931
925
917
909
899
889
879
870
864
853
848
845
842
839
838
831
826
825
819
818
814
813
809
810
810
814
818
816
816
815
812
810
809
812
812
814
816
818
819
821
820
816
817
817
817
814
816
820
825
825
826
828
828
826
824
821
818
815
815
813
814
816
820
819
818
815
815
815
815
811
805
807
806
811
813
813
808
812
811
807
804
802
802
802
805
806
807
806
807
807
804
800
799
797
798
801
805
805
807
808
805
803
801
796
795
798
797
797
797
801
807
809
815
817
818
819
822
821
820
825
824
828
830
828
827
827
830
829
837
838
838
842
842
840
843
841
836
834
829
826
822
818
810
805
800
800
800
796
795
789
787
785
786
784
787
790
791
792
796
798
796
796
790
789
789
786
792
806
831
869
919
988
1060
1144
1229
1315
1396
1457
1498
1519
1516
1493
1442
1343
1215
1087
959
831
703
701
754
812
854
871
864
848
825
806
793
791
793
796
798
802
805
803
805
805
799
798
798
797
797
797
796
799
803
807
811
815
816
820
820
818
820
819
821
823
827
828
832
836
835
839
841
842
844
846
849
853
857
862
870
875
875
880
883
885
889
893
895
904
911
915
923
930
934
938
942
944
947
947
950
953
959
961
965
965
966
961
954
954
953
945
942
937
932
928
924
916
901
892
879
867
859
849
844
837
835
830
829
824
823
819
815
811
808
803
800
801
800
801
808
807
807
805
803
804
804
804
805
806
808
807
811
813
813
813
812
809
807
805
807
809
811
816
818
821
821
820
815
815
812
812
808
810
816
818
819
822
820
818
816
817
812
810
808
810
810
811
813
813
809
810
806
804
802
798
801
802
805
808
807
806
808
804
803
804
801
798
797
799
802
802
805
805
806
802
802
799
800
798
800
796
798
799
799
800
800
802
804
807
810
815
817
820
825
824
824
826
828
829
830
834
839
842
847
848
848
845
847
844
842
839
834
831
824
822
815
815
812
813
814
812
807
801
791
793
790
790
789
790
790
790
792
794
798
797
796
795
793
792
793
798
808
823
850
892
947
1011
1085
1157
1232
1310
1376
1439
1485
1506
1495
1445
1335
1207
1079
951
823
695
713
784
844
879
887
873
848
826
807
801
800
802
805
805
806
807
808
809
810
812
811
814
812
814
816
818
823
825
827
826
825
818
820
821
825
827
829
834
839
841
846
848
848
853
854
856
857
857
860
867
873
879
888
894
901
903
907
912
913
918
926
932
943
950
958
963
967
969
975
974
975
972
972
974
974
975
977
977
975
969
960
951
942
932
923
912
904
898
889
883
877
867
858
849
842
835
834
833
831
829
830
827
819
818
814
809
806
804
803
809
813
814
819
819
818
815
813
810
809
809
813
815
815
817
817
819
819
821
820
821
820
819
818
816
816
820
823
825
821
824
821
816
815
813
813
817
817
819
821
822
823
823
816
809
802
799
800
800
802
806
811
812
811
808
805
801
799
797
797
796
798
799
803
805
805
803
802
800
801
801
799
795
799
799
800
802
801
798
798
795
791
790
794
794
796
800
805
807
817
817
820
820
821
818
818
817
821
821
825
832
838
839
838
835
830
829
825
828
825
827
824
823
819
817
811
802
797
792
786
780
779
779
779
781
779
783
784
783
781
784
779
780
782
784
786
788
788
787
792
801
824
861
910
980
1052
1132
1209
1292
1365
1431
1471
1489
1473
1426
1327
1199
1071
943
815
687
703
761
817
851
857
846
824
804
790
783
782
788
789
789
790
790
788
785
787
787
789
794
798
800
801
798
797
795
796
800
804
804
804
806
808
811
815
814
817
814
816
819
823
826
832
839
842
846
850
852
853
851
856
860
858
866
873
880
889
893
904
904
911
914
916
915
918
926
933
935
945
951
956
955
956
952
951
948
944
939
936
931
924
916
904
895
882
873
863
854
847
840
834
826
820
813
808
803
795
791
787
785
784
785
782
782
783
787
787
792
789
782
780
773
773
775
777
781
785
787
787
787
787
786
783
782
781
781
782
786
786
787
788
789
787
784
783
784
783
782
782
785
783
785
783
783
783
783
785
781
778
777
772
771
769
769
769
772
771
771
764
764
761
761
762
768
771
774
771
769
762
760
757
759
759
759
760
761
765
767
768
767
765
763
760
759
760
758
758
763
763
767
769
772
773
775
771
771
771
771
772
779
784
788
787
786
784
784
785
789
789
790
790
792
792
792
794
793
793
790
786
786
785
783
782
779
777
774
769
763
760
753
748
752
750
753
756
760
755
754
751
751
748
750
751
752
754
756
758
762
769
787
808
843
888
944
1011
1082
1163
1249
1333
1401
1452
1470
1457
1400
1292
1164
1036
908
780
652
652
700
751
794
814
817
807
797
786
775
770
769
770
772
774
780
779
778
775
772
771
774
775
777
781
782
790
795
799
797
793
793
790
791
794
797
800
803
806
805
806
806
811
811
813
814
812
816
820
830
833
842
847
846
852
849
850
855
858
866
877
888
899
904
908
910
911
908
910
914
919
924
928
932
933
938
936
943
945
945
944
940
934
928
928
925
922
917
908
903
892
882
877
868
861
854
849
846
844
838
830
820
813
805
799
796
792
793
794
796
798
803
804
804
803
801
797
794
797
798
799
801
805
807
809
809
812
811
808
808
805
806
807
807
806
807
810
810
813
814
812
814
813
811
812
813
814
816
816
815
812
809
805
804
799
800
804
808
813
816
813
808
799
792
791
792
794
800
803
799
798
799
802
797
800
799
800
799
796
793
788
784
785
787
789
789
791
791
793
796
797
799
802
799
796
798
797
802
798
802
804
802
803
803
809
813
817
824
821
820
819
815
815
816
814
819
826
831
838
844
843
841
840
839
835
832
825
821
818
819
815
817
816
807
801
792
785
780
776
779
783
786
792
797
798
799
794
793
789
785
786
788
789
790
789
797
804
818
840
873
920
983
1056
1139
1228
1314
1396
1463
1499
1509
1482
1406
1280
1152
1024
896
768
659
704
776
836
870
877
860
833
812
795
794
794
796
799
802
801
804
803
801
799
803
802
797
798
799
803
805
810
814
811
817
816
814
812
814
816
819
821
827
827
827
829
831
827
830
835
835
838
841
845
852
855
861
862
863
866
868
871
876
880
892
896
904
914
920
926
929
932
936
934
936
939
947
954
963
968
970
972
971
971
970
966
966
958
957
948
945
939
929
924
914
906
897
884
876
870
864
856
851
844
838
830
826
818
813
809
808
807
807
808
808
807
801
799
798
802
803
800
802
800
802
797
802
802
807
804
804
803
803
801
799
802
804
805
810
808
810
811
808
803
804
799
797
800
804
805
809
811
810
811
806
800
799
794
794
794
795
797
800
801
801
801
798
797
794
788
786
788
793
795
797
793
789
789
789
787
784
784
783
781
782
786
788
793
793
793
793
786
782
778
780
782
785
788
788
791
788
789
794
799
800
798
797
797
803
804
809
808
810
808
806
805
812
816
814
819
822
819
819
816
813
807
807
804
802
799
797
797
798
795
794
790
784
780
774
769
768
767
768
770
771
774
777
779
780
779
781
780
778
780
790
802
825
860
912
982
1064
1160
1260
1354
1434
1482
1500
1482
1415
1292
1164
1036
908
780
652
687
746
798
830
838
825
804
788
778
773
775
778
781
785
783
784
784
783
783
788
791
793
795
795
796
800
798
799
800
800
799
806
807
811
810
809
808
811
813
816
818
823
829
835
837
842
845
847
850
851
855
854
862
869
876
883
888
894
898
901
906
910
912
916
921
929
933
934
937
936
939
937
933
931
925
923
924
919
912
908
901
889
880
870
858
847
835
823
818
817
813
814
811
804
796
789
786
782
782
781
779
779
780
778
772
773
771
771
770
773
773
773
770
775
777
783
782
783
780
775
772
774
773
776
780
781
785
788
785
784
781
780
780
781
780
777
776
779
781
784
786
786
788
782
783
780
774
773
775
774
777
781
782
781
780
780
777
772
772
769
767
765
765
765
768
775
779
777
777
776
771
767
767
765
766
770
771
770
771
770
768
768
765
765
766
769
771
773
777
777
775
770
771
772
775
778
781
787
788
789
793
793
794
795
792
789
789
788
792
795
800
806
811
809
810
810
807
806
803
801
798
800
801
803
802
798
792
788
782
777
777
773
772
775
775
778
779
777
774
773
771
771
770
773
775
780
780
784
783
788
796
807
826
857
896
942
1003
1069
1142
1229
1313
1386
1438
1455
1429
1345
1217
1089
961
833
705
689
743
797
838
855
849
833
814
801
793
791
797
801
804
806
805
804
803
803
805
810
813
814
815
816
817
814
815
812
814
817
817
817
818
818
822
826
831
834
839
839
839
839
837
839
842
849
852
860
864
869
871
876
876
879
881
887
897
907
914
920
925
924
923
928
932
932
938
942
945
950
954
959
964
966
963
959
953
951
948
942
934
934
930
928
924
914
901
888
871
862
853
845
839
837
835
835
835
834
830
827
825
824
823
819
815
815
812
811
816
814
814
815
817
815
817
815
817
816
818
817
818
817
813
812
815
815
817
817
821
821
822
825
828
828
825
825
822
820
819
817
821
824
824
828
828
828
827
827
824
821
815
812
809
811
812
815
816
817
816
819
815
812
809
806
806
810
813
813
810
807
811
812
813
812
811
811
810
812
814
813
814
816
812
806
801
799
799
805
805
805
808
811
811
813
816
817
824
826
826
824
826
827
828
834
839
837
838
838
842
842
849
849
850
851
851
851
855
855
856
852
849
844
833
829
823
821
817
816
813
808
805
799
791
791
796
797
800
804
804
808
811
810
810
809
806
805
805
808
813
826
845
875
921
976
1044
1119
1203
1294
1379
1447
1499
1521
1523
1502
1451
1356
1228
1100
972
844
716
712
774
836
872
884
876
850
826
810
801
798
802
804
809
812
813
814
815
814
815
815
815
812
814
813
817
822
824
828
832
831
829
824
824
824
829
825
830
833
836
840
849
850
850
848
846
848
849
850
856
857
868
877
885
890
896
898
900
901
905
911
915
924
933
941
950
956
957
958
959
958
955
957
956
959
964
966
971
967
965
959
954
949
941
935
923
913
907
897
891
880
864
858
847
842
837
829
831
828
827
825
821
820
819
817
818
815
811
811
811
812
811
813
813
812
811
812
814
815
815
817
817
817
816
816
817
816
815
815
815
813
812
811
810
812
815
816
821
822
822
821
823
819
818
814
811
811
815
815
815
816
814
814
812
812
810
810
809
810
805
809
809
812
813
810
809
806
804
798
798
803
805
806
810
808
807
803
800
797
797
797
799
802
803
802
802
800
795
796
795
795
797
794
795
798
800
803
807
809
808
808
808
810
812
813
816
818
818
821
820
821
823
827
828
831
835
837
840
841
843
846
845
843
839
834
829
825
825
822
821
818
815
807
806
801
798
793
790
787
785
783
786
788
788
791
793
795
795
797
797
794
796
794
792
795
803
818
846
884
936
1002
1076
1161
1245
1327
1402
1460
1497
1511
1501
1466
1387
1259
1131
1003
875
747
693
740
801
849
873
871
856
830
807
793
788
789
793
801
806
807
809
808
807
801
800
795
795
800
804
809
813
817
817
817
818
820
820
822
821
820
818
821
825
825
829
831
833
837
839
842
843
842
843
846
852
862
871
875
880
883
884
886
888
891
895
907
914
919
924
932
937
938
944
950
953
957
961
963
967
967
970
970
968
965
961
957
955
950
947
944
940
933
925
912
900
892
882
871
860
848
839
836
832
831
828
825
820
815
810
806
804
803
801
805
804
807
806
802
803
800
803
806
802
799
796
792
795
798
802
805
812
811
810
810
807
805
804
804
806
807
813
815
816
814
810
806
803
802
800
801
804
803
805
805
805
807
807
806
802
796
796
794
796
796
800
802
801
803
798
796
795
789
790
789
790
790
790
791
792
792
791
792
791
787
786
786
787
789
788
788
788
785
785
784
784
785
784
787
792
793
793
787
786
778
773
774
777
784
785
799
808
813
816
812
808
802
801
800
800
805
806
811
813
817
820
826
823
821
817
818
815
812
806
807
806
802
800
796
787
786
781
779
776
774
772
771
770
767
769
772
774
771
770
768
768
766
765
768
770
777
782
794
811
835
878
929
997
1072
1160
1255
1349
1430
1483
1501
1481
1415
1287
1159
1031
903
775
647
686
751
810
846
851
835
805
784
766
759
758
765
770
773
774
776
769
767
768
769
768
773
770
777
780
782
788
787
788
791
791
788
786
783
784
787
789
792
800
801
807
808
810
810
813
816
816
819
822
826
829
832
835
839
842
847
852
855
860
865
874
883
891
894
899
900
902
901
904
911
911
917
924
929
935
935
932
929
921
914
909
903
896
886
881
869
857
849
838
830
826
817
811
808
802
796
791
790
790
786
781
775
770
771
768
767
767
771
771
773
773
772
774
774
776
773
768
766
764
764
768
770
773
777
782
781
779
777
774
773
768
770
771
774
773
776
774
774
773
768
767
764
765
767
769
772
777
775
773
768
763
759
758
757
757
755
759
761
764
765
765
767
761
754
753
747
748
753
754
754
753
753
753
756
757
754
753
752
751
753
752
750
757
756
756
751
748
744
745
747
746
753
757
761
766
766
764
766
768
769
769
769
770
766
774
773
776
780
781
786
789
791
794
791
792
791
794
794
791
792
791
788
786
779
774
768
765
763
761
757
757
757
756
754
754
753
753
754
754
756
761
761
764
766
765
764
763
763
766
771
782
805
838
883
946
1015
1097
1184
1272
1354
1418
1450
1448
1390
1279
1151
1023
895
767
639
643
701
761
800
819
819
808
790
781
774
773
774
776
776
776
774
775
777
779
779
784
783
784
781
783
780
786
783
782
784
792
797
801
807
809
805
804
804
807
804
801
807
809
817
825
826
829
827
831
833
837
842
847
850
858
863
869
869
874
881
885
893
899
906
909
915
919
923
926
928
931
932
933
936
935
937
935
933
935
937
937
937
932
923
906
897
887
869
859
853
847
838
830
825
821
815
807
805
801
803
794
795
794
788
791
791
788
785
784
783
782
781
780
786
788
791
791
787
786
788
787
790
794
794
795
795
796
796
795
796
799
797
797
799
796
795
795
795
797
796
796
798
795
799
794
792
786
784
785
786
789
791
794
792
791
791
789
783
784
781
778
777
781
781
784
787
780
779
777
782
781
784
781
778
779
779
781
783
784
784
783
785
783
782
779
777
775
775
775
778
775
775
775
775
775
772
771
772
777
783
783
788
789
792
793
797
796
795
793
795
799
802
806
808
805
806
808
815
816
818
821
819
817
817
817
817
816
819
820
818
813
808
803
797
792
787
785
785
783
781
772
770
764
762
765
765
767
769
771
772
772
770
771
768
768
769
769
772
775
784
793
804
823
853
894
954
1016
1093
1178
1263
1347
1418
1472
1501
1501
1468
1390
1263
1135
1007
879
751
631
669
739
801
841
854
842
822
801
785
776
778
780
783
787
788
783
784
780
780
778
774
777
783
787
789
794
795
799
801
800
794
793
794
796
797
803
811
816
818
818
817
815
816
818
820
817
821
824
829
836
838
843
851
853
863
866
869
873
876
880
885
890
898
905
911
915
919
925
929
933
940
944
950
953
957
957
958
960
955
954
943
937
937
936
931
927
924
911
900
886
871
860
850
842
839
831
825
821
820
815
810
806
799
793
791
790
792
788
786
785
788
785
789
787
785
781
782
781
780
787
792
796
800
798
798
794
791
793
796
794
791
790
793
792
796
797
796
795
788
791
791
792
791
793
791
795
797
795
794
791
789
787
788
787
787
786
780
780
783
785
785
782
779
774
771
773
772
775
779
782
785
782
780
775
771
768
768
767
770
775
779
781
781
778
780
778
779
781
779
779
778
774
772
772
775
773
778
778
782
785
788
788
792
796
797
802
808
808
808
806
803
801
803
806
809
818
819
820
823
820
818
815
810
809
808
806
801
803
802
802
799
797
790
782
777
768
763
760
760
763
763
765
768
772
773
770
771
768
766
768
765
766
770
775
785
805
835
882
945
1023
1115
1214
1316
1400
1463
1492
1485
1435
1328
1200
1072
944
816
688
639
707
777
832
862
859
839
814
788
771
769
769
775
781
781
781
783
784
786
785
790
791
789
785
784
783
783
787
791
791
795
797
798
798
796
795
796
800
806
813
819
821
820
820
821
815
816
822
825
829
832
838
842
846
853
861
861
864
867
871
875
885
890
900
906
908
912
913
916
920
925
930
935
942
943
948
949
951
946
949
948
944
941
937
933
927
918
913
902
897
888
881
872
865
861
851
844
832
822
815
813
807
803
803
801
799
794
787
783
784
783
787
788
792
797
794
793
792
789
789
786
784
786
789
790
790
790
789
791
788
788
789
792
792
792
794
796
796
797
797
792
787
785
781
783
783
783
785
788
786
787
787
783
782
779
777
773
775
778
778
781
778
778
775
775
771
771
768
769
770
769
772
776
774
773
774
767
767
767
764
762
762
765
767
769
772
774
774
771
770
767
765
764
758
760
762
764
770
770
774
775
776
777
778
779
781
781
777
782
782
785
789
789
788
787
791
793
800
806
810
812
809
804
796
790
785
780
783
785
788
785
785
780
772
766
757
757
755
752
757
762
765
763
765
763
762
764
766
767
767
767
759
755
757
768
793
836
893
973
1067
1169
1278
1371
1439
1480
1493
1469
1399
1271
1143
1015
887
759
651
693
747
795
815
822
807
791
774
766
760
763
762
764
763
762
764
766
770
773
770
773
772
774
773
772
770
770
770
772
777
785
786
789
790
788
782
782
784
787
790
795
799
805
806
808
810
813
814
818
820
825
830
838
841
846
849
851
857
859
864
869
875
880
883
888
895
900
906
907
909
908
908
905
906
905
901
902
898
902
899
896
888
878
867
854
839
827
820
818
816
811
803
797
791
782
776
773
766
763
764
763
765
764
763
760
762
760
754
753
751
747
748
749
752
755
756
758
758
759
755
752
752
752
753
756
754
760
762
764
764
764
762
753
755
752
757
758
760
765
763
760
759
756
753
753
751
753
755
757
758
763
764
760
759
755
752
746
746
749
753
756
757
761
760
755
751
745
747
746
748
750
753
756
757
758
757
755
752
752
751
752
751
750
752
755
761
763
763
762
760
759
758
759
758
758
758
760
764
771
772
776
774
775
778
775
780
783
786
785
785
790
790
787
792
792
797
798
797
796
798
807
804
807
809
809
807
802
800
796
796
788
787
780
778
772
767
767
765
761
764
766
763
762
768
771
773
778
777
777
776
770
770
771
770
770
781
800
832
875
931
1001
1078
1155
1232
1308
1377
1430
1460
1469
1439
1361
1233
1105
977
849
721
665
711
767
812
834
834
823
804
787
777
774
773
771
773
774
775
780
782
788
790
794
793
791
788
783
781
780
785
789
792
796
796
794
795
793
795
798
796
797
798
804
808
819
824
825
826
826
823
824
824
827
835
840
846
857
861
867
871
873
878
885
888
893
904
910
914
919
920
918
923
923
923
924
924
925
926
929
927
930
923
920
912
905
895
885
874
861
855
853
851
848
842
832
828
818
810
804
797
792
789
785
779
782
781
780
782
780
777
773
771
772
775
777
779
781
779
775
775
773
775
778
778
780
784
785
789
791
793
792
790
787
784
781
780
781
784
792
792
796
794
791
790
790
787
785
782
784
787
790
791
791
788
785
785
785
779
781
779
780
780
777
782
783
785
784
782
777
777
772
771
773
778
781
783
786
783
779
779
774
772
769
766
769
768
772
777
781
780
779
776
775
770
768
764
765
765
770
772
779
783
786
793
793
796
793
797
796
799
803
802
802
801
802
805
807
809
811
812
811
808
808
810
812
814
810
808
804
799
798
791
783
782
780
773
771
769
765
767
770
771
772
772
769
766
770
770
771
777
778
778
774
773
773
778
799
825
871
936
1014
1103
1199
1298
1384
1449
1489
1501
1481
1430
1336
1208
1080
952
824
696
666
714
772
820
844
839
825
808
795
780
776
778
778
779
780
779
783
784
787
786
788
786
784
785
784
787
787
785
788
788
792
794
801
802
804
808
808
805
807
811
810
812
817
819
825
827
828
831
834
840
840
846
846
854
861
865
876
881
886
889
894
901
908
914
918
919
925
924
928
931
929
929
934
934
935
932
931
928
927
930
926
920
911
899
887
879
866
860
852
843
837
833
830
825
819
814
807
803
801
798
796
794
794
794
795
794
794
790
790
784
782
781
781
783
785
787
788
790
790
791
789
791
789
787
781
780
783
787
792
796
797
798
796
793
793
792
793
794
794
792
797
799
802
802
799
793
790
785
783
780
783
789
792
792
791
785
781
779
776
774
774
776
782
788
792
790
789
786
778
776
773
776
775
776
779
782
777
779
780
780
778
779
779
775
772
769
770
771
777
782
782
784
782
780
777
775
777
779
789
793
798
800
800
799
798
797
797
794
795
797
800
807
811
816
815
814
812
811
807
803
802
807
806
802
800
801
800
799
795
789
787
780
775
775
771
768
770
769
770
769
765
762
759
759
762
765
771
774
777
778
774
771
773
780
795
819
857
915
984
1063
1158
1253
1345
1422
1471
1493
1484
1441
1357
1232
1104
976
848
720
634
665
722
788
827
841
839
817
799
784
776
781
775
776
776
775
776
777
781
781
783
785
786
783
784
783
780
780
778
780
786
789
791
792
791
797
801
803
806
808
808
807
805
807
811
817
824
828
831
833
831
832
834
835
838
840
848
852
857
869
875
879
882
884
887
889
891
897
901
908
917
922
929
929
933
936
937
938
939
938
939
944
946
945
942
940
937
932
926
915
909
900
893
882
876
868
862
857
846
834
825
818
813
808
801
801
800
797
797
795
790
791
789
786
784
778
783
780
784
786
792
793
791
790
789
790
786
780
781
781
786
791
796
796
800
798
795
790
788
788
789
794
797
798
797
796
794
795
792
790
789
788
791
791
794
797
798
797
794
788
784
784
783
784
784
787
788
791
789
792
789
788
788
786
784
781
776
774
773
776
780
785
783
780
779
780
778
781
782
780
778
778
771
775
774
778
778
780
779
777
777
782
785
788
786
785
784
784
787
786
792
796
800
804
802
806
804
802
800
797
793
795
802
809
813
814
817
819
815
812
810
808
806
806
801
795
790
787
783
783
779
778
777
770
768
765
764
764
764
765
768
771
775
775
774
770
765
760
758
762
772
791
820
859
916
989
1074
1176
1278
1373
1446
1492
1504
1478
1409
1281
1153
1025
897
769
645
692
754
813
850
858
850
827
805
789
774
771
770
773
774
775
779
780
782
782
781
781
778
778
778
779
782
784
788
790
790
790
790
791
793
795
798
798
797
795
797
800
801
810
810
814
816
817
820
824
825
829
832
838
844
849
857
864
867
875
877
880
881
890
896
904
910
918
920
922
922
927
931
932
936
935
937
939
941
941
940
939
934
925
921
911
903
891
882
876
871
865
856
848
840
830
821
815
808
801
802
799
799
797
795
790
786
783
779
780
779
781
781
781
781
783
786
785
783
783
784
782
783
786
787
790
791
793
793
791
788
785
782
782
782
784
785
787
789
792
793
794
789
786
784
783
780
777
781
782
788
790
786
782
777
773
771
769
772
768
770
773
776
781
781
782
783
783
779
774
762
760
760
758
761
771
773
773
770
770
767
759
761
759
761
762
763
764
764
764
765
763
760
761
762
758
763
766
767
773
779
784
783
784
782
778
779
778
783
789
789
796
797
799
797
795
791
789
788
788
789
787
782
786
788
787
783
781
773
766
766
760
757
750
751
750
753
757
756
752
751
751
750
751
757
758
762
763
760
759
760
762
771
793
829
883
952
1031
1118
1210
1300
1381
1443
1481
1490
1468
1402
1279
1151
1023
895
767
661
692
745
791
818
827
817
799
783
773
766
767
766
768
768
764
766
765
763
764
770
769
773
775
775
773
773
775
777
779
778
782
783
786
792
794
795
798
793
790
789
788
786
795
801
805
810
816
818
820
824
821
820
822
819
825
833
839
847
854
862
872
877
882
886
889
893
900
904
911
914
922
923
924
925
927
925
926
921
916
913
906
898
888
881
870
861
849
842
829
822
819
817
814
812
808
801
795
784
782
775
770
769
769
767
768
770
771
772
772
777
771
771
770
767
763
762
762
768
769
771
773
774
775
775
771
768
767
769
769
774
777
779
778
775
771
767
768
767
768
770
777
779
780
779
773
770
767
764
762
762
763
769
770
771
772
770
765
759
753
751
747
747
751
752
753
756
756
757
755
751
751
749
745
747
746
747
750
753
751
753
753
751
744
743
741
740
739
738
738
744
749
754
762
765
769
771
768
765
760
756
753
757
763
763
765
766
766
767
768
771
775
778
784
784
783
781
781
777
775
774
770
770
769
770
769
772
769
766
762
755
745
738
737
743
746
751
752
754
753
750
749
747
750
752
753
755
755
753
754
758
767
776
796
824
863
916
984
1060
1142
1224
1304
1370
1423
1457
1469
1452
1392
1280
1152
1024
896
768
640
656
707
765
804
822
820
809
793
778
770
768
765
773
778
780
779
777
774
774
770
772
774
780
783
786
791
797
796
795
793
791
787
790
791
788
791
793
796
796
801
806
809
812
816
818
818
824
826
830
833
836
835
845
847
849
847
851
856
862
868
873
881
886
890
902
903
906
909
910
910
915
921
926
934
940
945
944
939
937
935
934
933
930
927
922
920
914
906
899
887
876
867
859
857
852
844
836
830
822
817
812
803
799
798
798
796
796
795
789
793
793
792
790
787
785
784
782
781
782
780
785
793
798
798
799
799
797
791
793
795
796
797
799
803
803
802
805
801
803
799
798
796
795
795
797
803
806
809
810
809
804
800
798
794
794
795
803
803
800
801
800
797
793
793
791
792
796
798
794
798
795
795
792
789
787
786
782
786
786
789
786
791
796
796
798
794
790
788
784
783
783
789
791
794
794
791
792
788
787
788
788
792
801
807
815
817
819
817
812
808
814
814
811
812
813
812
816
820
819
824
826
827
826
822
823
821
822
821
820
825
822
819
812
804
798
789
784
779
781
781
783
785
784
787
787
787
786
783
781
778
780
781
784
787
790
788
790
793
807
839
889
957
1039
1130
1228
1326
1418
1480
1508
1507
1466
1371
1243
1115
987
859
731
711
765
819
859
874
866
850
827
810
801
800
799
802
804
805
802
801
801
798
798
798
797
798
801
805
810
810
811
811
811
811
811
813
815
817
820
825
827
829
826
823
822
822
824
826
830
835
838
844
849
853
856
857
858
857
859
863
869
876
883
890
902
906
908
912
914
918
922
925
930
937
944
953
960
966
966
965
962
959
956
951
954
953
954
952
942
936
924
915
904
896
888
884
876
873
867
863
855
845
837
830
822
817
814
815
813
812
813
816
816
819
817
815
816
814
807
805
803
802
805
809
812
813
814
814
814
813
812
811
809
811
813
816
814
815
819
818
819
816
817
815
817
818
818
819
819
819
818
815
814
811
812
810
808
811
810
813
817
816
817
816
813
810
807
807
806
809
813
816
818
815
809
810
808
808
810
810
813
813
813
811
810
811
810
806
809
807
804
803
803
805
805
805
809
813
814
812
813
812
815
820
822
827
829
830
837
834
834
835
836
835
837
835
838
842
844
847
849
849
847
850
849
846
840
841
833
832
824
817
812
806
803
798
796
792
795
796
798
799
801
800
801
799
800
798
801
799
793
794
795
802
818
847
895
969
1057
1163
1278
1378
1463
1519
1542
1538
1507
1443
1323
1195
1067
939
811
723
761
817
856
871
866
851
832
816
809
807
808
806
805
805
804
806
807
809
814
813
815
813
815
811
809
807
811
813
817
819
821
821
818
820
821
824
826
826
831
833
836
838
841
843
845
845
848
850
854
857
865
872
881
888
892
894
901
899
902
907
915
924
933
940
946
949
954
954
956
955
955
957
957
958
956
957
954
955
951
948
939
932
925
915
904
891
879
869
862
858
851
844
834
830
822
817
812
808
805
801
805
809
813
810
802
795
788
784
783
787
788
791
792
793
796
795
796
795
794
795
794
790
791
784
788
788
791
793
796
799
799
795
789
790
791
796
795
797
798
792
788
785
787
785
787
785
786
789
791
790
793
792
789
785
783
781
777
778
780
780
781
777
778
777
776
773
774
771
777
774
779
781
781
778
775
773
768
766
766
767
768
769
771
774
774
778
778
778
776
778
781
776
776
780
783
784
786
794
799
802
800
805
803
799
792
792
795
797
801
812
818
819
820
817
814
811
811
809
809
812
812
811
815
809
805
796
791
788
781
777
776
775
777
782
787
787
788
788
785
786
782
779
779
781
780
784
791
797
806
822
846
878
918
967
1020
1082
1156
1237
1322
1399
1454
1484
1475
1419
1303
1175
1047
919
791
680
714
771
824
858
864
850
828
809
796
793
797
797
803
803
804
804
802
802
804
804
806
809
811
818
823
825
827
826
823
820
818
820
824
829
837
840
844
841
843
842
841
843
847
850
855
860
866
867
871
876
878
883
887
891
898
904
912
918
925
933
941
946
950
955
957
958
960
960
967
972
978
977
978
973
970
963
960
953
948
941
936
928
922
914
908
902
891
883
873
867
862
854
848
847
837
839
836
832
829
826
818
814
813
813
811
813
814
815
817
817
818
816
816
812
812
811
812
813
816
819
821
824
826
828
830
823
828
827
829
826
825
824
823
818
820
821
824
827
827
828
827
828
826
825
829
830
827
828
826
824
821
820
819
820
825
827
830
831
829
827
822
817
811
806
806
814
812
819
820
820
821
816
815
812
809
810
809
814
816
818
819
819
820
817
816
812
808
808
809
812
817
818
820
818
821
824
826
829
834
837
839
839
837
839
839
836
835
838
842
846
849
853
853
851
847
848
848
851
852
848
848
847
844
842
839
835
827
823
816
813
812
812
807
804
804
804
803
807
810
812
814
816
814
813
811
811
809
807
807
815
827
848
880
927
989
1068
1155
1249
1346
1429
1497
1533
1546
1532
1495
1420
1302
1174
1046
918
790
724
761
816
863
890
893
879
857
837
823
812
812
817
818
821
821
824
822
817
817
815
819
817
820
820
822
822
821
821
825
827
831
835
835
834
834
832
831
834
842
848
853
858
857
858
856
857
856
858
864
874
878
888
896
894
893
898
899
905
908
911
917
925
934
946
951
955
959
963
966
973
977
980
980
979
976
978
975
976
972
972
970
964
956
946
933
927
916
910
904
892
884
877
868
859
855
842
836
833
835
837
842
843
837
837
830
823
816
815
815
814
817
821
826
822
825
825
821
817
819
817
817
822
822
824
823
822
822
825
822
822
822
820
822
826
828
827
828
828
828
825
822
819
820
817
819
821
819
821
823
821
818
818
817
814
815
812
806
806
804
808
811
814
813
812
807
803
804
804
803
807
807
810
809
808
810
806
804
799
801
801
800
798
797
798
801
802
804
802
806
802
799
796
798
799
801
803
809
813
810
817
814
811
810
807
807
812
816
821
829
831
835
836
835
833
829
826
819
819
817
817
822
821
824
819
813
806
798
790
788
784
783
783
779
779
779
782
782
782
778
777
780
785
785
788
791
788
789
787
791
801
825
865
918
983
1062
1139
1218
1299
1373
1440
1472
1485
1451
1361
1233
1105
977
849
721
704
750
805
840
851
839
819
794
779
772
776
783
788
786
784
784
781
779
777
782
787
787
791
797
798
800
799
796
796
795
792
793
801
802
808
809
808
808
811
817
819
824
820
821
820
822
829
839
846
846
851
857
860
860
864
864
866
872
876
884
892
898
907
910
916
919
921
924
928
934
938
944
945
945
943
944
946
950
950
948
949
944
941
938
932
920
905
897
885
873
867
863
856
854
849
848
842
835
828
819
813
809
808
804
806
807
808
810
809
808
804
801
801
801
802
803
803
806
803
809
810
805
805
805
807
808
811
810
809
812
812
815
818
819
819
818
815
816
814
816
819
825
827
826
826
823
818
816
812
813
809
809
807
808
808
809
809
810
807
805
806
803
805
806
805
803
802
800
798
799
798
799
798
799
797
794
792
795
798
802
805
806
804
799
797
797
797
800
798
798
800
802
805
802
803
800
801
802
801
800
802
806
813
817
821
824
826
826
825
823
822
824
823
826
827
834
841
839
841
842
839
839
836
834
835
835
834
837
839
835
836
825
815
807
799
793
793
794
793
798
802
797
798
794
795
792
793
797
802
803
803
803
802
798
801
816
833
867
918
988
1075
1168
1263
1357
1436
1490
1519
1520
1498
1457
1378
1254
1126
998
870
742
728
769
822
861
875
871
850
832
817
811
808
811
816
813
810
809
808
806
805
808
807
811
815
821
823
823
824
822
824
821
820
823
821
825
828
831
835
839
841
842
842
846
845
849
853
855
858
861
867
868
871
871
872
875
880
887
892
903
910
917
923
924
925
929
935
942
952
959
963
968
975
980
981
983
982
977
975
974
972
966
957
956
948
941
935
923
916
901
890
883
875
867
861
854
847
844
840
840
839
835
829
823
820
819
819
819
821
824
825
825
824
823
823
820
816
814
814
813
812
817
822
824
825
824
823
820
819
822
819
822
825
826
829
828
827
821
824
824
827
828
827
827
830
833
833
833
832
828
826
822
815
817
817
821
825
825
828
826
826
825
825
822
817
812
811
813
812
819
825
828
827
825
818
817
814
812
812
818
817
819
818
816
813
814
815
811
811
808
811
814
816
816
818
816
818
821
824
823
828
826
827
834
833
832
838
840
839
841
841
845
843
849
848
847
848
842
845
845
843
845
837
838
834
832
830
828
825
820
817
811
803
794
793
793
796
799
804
806
806
811
808
806
804
803
805
803
801
800
803
810
827
856
903
965
1040
1126
1220
1311
1398
1467
1509
1525
1517
1483
1412
1291
1163
1035
907
779
706
744
806
857
880
882
864
837
816
798
795
797
798
800
800
802
804
804
805
806
808
808
806
806
806
809
804
810
812
817
818
820
820
821
822
823
822
818
815
814
817
827
834
841
849
849
849
850
852
855
861
868
876
881
882
887
894
895
897
899
904
908
915
924
933
941
947
953
955
954
952
956
958
958
960
960
963
960
957
958
948
940
934
923
912
899
890
883
874
869
862
854
848
834
830
824
818
811
806
802
802
805
808
811
812
808
803
797
791
786
786
791
797
798
802
804
803
803
803
800
795
793
796
798
801
805
806
805
802
804
803
804
805
804
805
805
805
803
800
798
801
799
801
797
791
791
790
791
795
799
798
800
797
795
794
789
788
784
786
785
787
786
787
788
789
787
787
785
785
785
781
779
782
783
784
787
787
782
780
780
781
780
781
781
785
787
787
785
783
785
784
787
787
790
793
797
801
799
801
798
798
798
796
794
796
798
802
807
809
814
817
822
822
821
821
815
812
813
805
807
804
804
805
805
799
794
787
779
776
769
770
770
771
773
774
773
770
769
768
768
769
765
768
769
768
770
772
775
776
780
789
802
823
853
896
954
1021
1102
1189
1282
1366
1432
1472
1476
1437
1348
1220
1092
964
836
708
667
702
753
798
823
830
820
810
794
787
781
781
780
780
778
775
773
769
764
771
771
778
783
789
789
786
786
783
780
779
776
779
786
789
794
798
798
799
799
801
799
804
807
808
811
810
811
814
815
814
815
817
818
825
826
835
842
848
857
864
868
871
874
876
876
880
883
886
888
897
904
915
922
927
933
930
932
928
924
925
928
930
929
928
924
920
915
909
900
890
882
876
870
865
856
855
847
837
824
815
809
805
796
785
781
780
781
787
791
788
787
781
778
772
770
771
777
779
784
785
783
785
780
783
777
780
784
786
789
790
792
791
790
791
787
788
785
784
783
786
790
794
796
798
796
798
791
790
792
792
794
791
793
794
795
798
798
797
794
792
789
789
785
787
788
788
786
787
782
783
782
782
782
786
785
784
782
782
783
784
781
784
788
785
784
783
785
779
785
785
787
787
782
783
786
782
781
781
781
781
787
788
797
802
806
803
804
802
802
801
801
801
805
808
813
820
823
829
827
827
821
820
816
813
811
811
817
818
819
817
811
803
793
786
781
774
779
781
777
778
778
778
778
778
778
781
780
780
781
781
783
786
786
788
791
794
808
839
883
945
1022
1119
1219
1322
1408
1468
1493
1479
1417
1295
1167
1039
911
783
682
728
792
842
867
866
850
824
805
789
788
788
789
794
791
787
782
781
781
784
790
793
795
796
798
803
802
801
802
806
803
800
797
798
801
810
815
821
826
826
828
829
830
831
828
828
832
831
836
838
839
844
847
850
851
857
864
868
873
885
891
897
904
907
910
912
917
921
927
930
939
944
952
956
962
962
961
963
963
963
963
962
958
956
951
946
937
932
925
910
901
892
880
870
864
857
852
848
843
839
834
824
819
815
812
810
811
811
815
814
814
808
803
798
798
800
798
799
797
799
803
807
808
806
808
807
808
802
799
795
800
803
806
813
817
816
816
816
816
814
813
810
809
808
808
814
815
813
815
812
810
809
811
811
813
812
813
815
816
809
807
806
804
802
803
803
804
804
807
807
808
807
803
802
798
797
798
798
798
799
800
803
803
804
807
807
806
804
798
793
793
795
796
801
802
802
805
800
800
801
795
793
800
803
805
813
818
822
824
826
826
822
821
815
816
814
820
828
835
842
841
846
846
846
837
830
827
825
825
827
825
828
827
822
815
809
806
801
800
798
798
795
797
796
795
790
791
787
789
789
788
797
799
799
795
792
798
800
811
825
858
908
974
1056
1149
1248
1344
1424
1484
1509
1510
1482
1417
1293
1165
1037
909
781
700
751
815
863
882
875
850
826
809
799
797
801
805
804
809
806
807
805
803
801
801
801
803
806
811
812
814
815
815
814
815
813
812
815
820
821
827
831
834
833
833
833
833
835
841
847
850
856
861
864
867
866
870
875
877
883
892
899
909
917
922
925
932
935
935
937
942
947
952
960
965
971
971
967
962
956
947
943
935
926
920
915
906
899
893
881
869
860
847
839
830
822
816
812
809
808
800
798
794
790
788
785
785
784
786
789
792
795
797
795
792
783
780
779
777
780
780
784
784
789
789
793
790
787
785
782
780
780
783
787
785
786
785
787
786
786
786
783
782
784
783
791
790
787
789
789
786
784
779
777
775
775
778
776
777
782
780
779
778
775
773
773
772
768
768
764
765
772
776
777
775
772
769
769
764
763
759
761
765
765
768
767
764
766
763
762
765
765
765
768
767
768
774
776
778
781
782
781
777
781
780
783
784
788
788
791
794
793
793
791
793
794
792
795
795
793
791
797
794
788
784
780
780
777
776
775
772
769
760
759
754
751
745
744
749
747
748
753
755
755
758
757
755
756
752
751
749
747
746
752
760
776
803
841
892
957
1025
1107
1194
1285
1364
1430
1469
1483
1458
1389
1269
1141
1013
885
757
647
674
728
777
810
820
812
793
773
756
748
745
744
747
751
755
757
758
757
754
752
751
749
750
751
754
754
757
761
765
767
768
767
771
767
765
766
765
768
769
779
783
786
785
785
789
793
796
797
800
808
810
815
818
826
829
830
835
838
846
852
856
865
872
883
891
895
900
898
898
899
901
901
905
906
910
908
910
905
902
892
882
867
855
844
831
822
813
808
800
793
786
778
770
763
757
752
746
743
744
744
744
739
739
734
732
728
727
728
730
731
731
733
734
734
738
737
735
733
731
732
733
734
735
739
744
745
746
744
741
738
736
737
738
739
736
741
749
753
754
754
751
749
744
739
739
737
735
739
741
742
743
740
737
733
732
732
729
733
734
736
740
742
741
736
731
726
728
725
725
730
732
734
735
734
729
728
723
725
725
724
728
732
731
734
736
736
734
732
730
729
729
728
729
733
738
742
744
750
750
746
746
746
745
746
745
744
744
746
747
749
749
750
750
749
748
741
740
740
739
736
741
739
735
731
730
721
715
711
708
707
703
707
708
711
713
713
710
706
708
706
703
707
705
709
714
715
718
721
732
753
780
821
874
935
1003
1080
1154
1225
1279
1303
1292
1236
1133
1005
877
749
621
578
599
645
695
729
743
743
730
715
705
698
699
705
709
713
713
715
712
709
707
703
700
705
712
715
718
718
719
716
719
718
717
716
722
726
726
728
732
734
734
737
737
737
738
739
742
746
748
752
758
759
763
762
765
767
771
778
782
785
793
799
802
804
808
808
807
808
814
818
825
831
838
840
845
848
847
842
838
832
828
826
819
813
813
813
811
803
796
787
777
768
760
753
744
744
743
740
738
734
728
725
721
720
718
718
724
727
725
722
719
717
714
712
705
707
712
709
712
714
716
717
719
721
721
720
718
718
715
716
715
716
721
724
727
726
726
726
724
727
726
724
724
726
729
728
732
731
730
728
725
724
725
726
728
732
732
729
730
726
726
724
720
719
717
715
715
718
721
721
723
725
727
727
725
722
721
723
721
725
724
728
728
727
726
726
725
722
721
723
725
728
731
733
738
736
731
730
727
733
737
743
753
756
759
758
761
761
761
759
760
761
762
765
767
772
780
781
784
787
785
782
779
773
771
767
762
765
766
764
766
767
767
763
755
747
736
732
731
731
736
746
750
752
754
751
751
749
749
748
746
749
754
761
769
782
797
811
831
853
882
914
950
996
1044
1098
1149
1189
1206
1190
1130
1024
896
773
690
658
672
711
757
786
803
804
794
782
773
767
764
767
771
776
779
778
777
775
770
770
770
770
773
776
780
782
784
783
787
790
788
789
792
793
793
795
796
799
808
806
805
807
803
803
802
805
810
811
817
823
827
833
834
834
831
832
839
841
849
856
864
870
875
879
883
887
887
886
890
894
896
902
908
905
907
913
918
919
920
918
917
914
909
905
907
903
896
888
881
871
869
859
853
843
837
834
833
830
827
818
814
808
806
802
801
800
803
804
804
805
804
803
802
801
799
799
801
799
799
799
803
802
805
807
811
809
802
798
794
791
792
798
802
805
811
810
810
807
806
807
806
805
804
805
806
811
816
814
816
817
816
812
814
812
814
814
813
811
814
817
816
816
814
811
812
812
812
812
812
810
814
811
813
812
812
811
808
806
807
807
809
815
817
818
819
818
816
813
809
809
812
812
812
815
818
820
820
818
813
813
815
817
816
817
817
821
821
826
825
828
830
832
834
838
839
845
847
846
848
849
849
850
853
853
856
859
862
864
862
861
861
858
857
858
853
853
852
849
846
844
843
841
841
842
840
835
831
826
821
816
818
824
825
832
832
828
826
827
825
825
826
825
827
828
830
838
855
874
904
944
990
1046
1111
1177
1251
1319
1379
1419
1435
1411
1332
1204
1076
948
820
729
736
782
836
878
901
900
885
868
854
839
831
829
830
836
841
841
844
843
840
842
837
839
842
840
839
845
847
847
853
857
856
859
859
859
859
858
859
864
869
870
871
872
877
881
880
883
883
886
889
893
900
902
907
910
915
918
924
926
923
923
924
930
937
945
953
960
967
972
972
979
980
979
982
984
988
989
993
989
986
980
973
967
960
952
943
935
925
920
913
903
899
891
884
879
874
868
864
862
862
862
861
861
859
858
856
852
845
844
842
842
846
847
849
849
851
851
850
846
844
843
845
845
849
851
853
854
852
856
849
846
846
844
844
847
852
853
855
858
858
857
853
851
850
846
849
847
853
855
857
856
858
855
850
848
845
839
838
839
842
845
849
844
847
848
844
841
842
839
845
847
852
849
851
852
855
855
854
848
845
836
831
828
830
833
841
846
847
848
844
841
839
840
837
840
844
843
849
851
854
852
850
850
852
854
858
865
867
867
870
871
873
869
870
871
871
876
879
881
878
878
880
880
879
879
877
874
870
866
861
850
846
842
837
837
837
836
835
833
832
832
832
835
837
840
841
839
838
835
831
828
826
822
823
829
839
851
873
900
940
988
1051
1118
1190
1271
1345
1410
1457
1476
1448
1357
1229
1101
973
845
735
751
797
849
887
903
902
888
870
853
840
838
842
843
847
846
851
850
851
849
847
846
843
843
840
844
849
851
861
861
863
862
862
862
859
860
859
859
863
862
869
877
881
888
891
890
891
887
892
891
893
897
905
908
921
922
924
924
923
920
926
933
941
950
959
970
970
974
976
979
981
982
987
994
993
997
998
1001
1003
1004
1003
996
991
986
976
966
959
950
940
933
927
925
917
907
902
893
886
883
876
872
870
861
861
856
856
857
857
857
857
858
856
855
856
852
850
849
848
846
849
848
846
848
847
849
852
855
860
862
861
860
849
846
849
849
849
848
851
852
856
859
858
858
855
852
850
850
849
849
849
850
851
850
850
850
847
846
844
841
844
840
842
842
844
839
840
840
841
838
839
835
833
836
836
838
841
844
843
842
841
842
839
836
833
829
830
831
834
836
832
831
828
825
825
824
825
828
827
831
833
834
834
834
832
836
839
844
848
851
855
856
859
857
856
856
857
857
856
860
863
867
868
869
866
868
864
864
856
857
855
854
848
847
844
839
837
832
827
819
819
811
810
807
809
812
812
812
813
815
815
814
811
811
810
808
809
810
809
813
818
825
836
855
883
924
982
1047
1118
1194
1278
1353
1422
1474
1503
1498
1458
1369
1241
1113
985
857
729
727
773
829
873
887
883
864
844
827
819
816
820
822
821
821
818
818
814
812
813
811
813
815
820
823
825
825
825
826
826
827
827
827
826
825
829
832
834
837
836
836
838
837
837
838
838
845
849
853
856
860
860
860
863
868
871
871
873
882
885
891
899
903
904
910
912
920
923
929
933
938
946
955
965
973
975
974
974
972
970
977
977
975
982
981
981
979
975
969
961
950
942
934
920
910
901
892
887
880
871
861
854
846
840
834
830
829
827
825
822
823
817
816
814
812
809
805
808
804
804
804
807
809
815
813
815
812
811
807
808
808
810
814
814
817
816
818
815
814
812
810
811
812
815
818
819
820
819
816
813
812
808
808
805
807
809
809
810
812
812
812
810
807
804
800
801
802
803
804
807
811
811
810
807
804
800
797
796
798
798
800
803
803
801
795
797
794
796
792
794
795
797
797
797
798
802
799
796
792
788
787
783
786
790
790
795
800
805
806
807
807
805
807
809
805
809
811
813
818
818
819
819
821
821
823
824
829
832
832
827
824
823
819
815
813
810
805
802
800
800
800
798
796
787
784
779
774
773
770
767
768
767
773
774
777
779
782
780
777
775
774
771
777
786
804
831
877
946
1023
1113
1205
1298
1382
1446
1480
1481
1440
1354
1226
1098
970
842
714
670
720
780
829
854
851
833
812
791
777
769
766
767
765
768
767
768
770
771
774
775
778
776
777
775
775
775
775
777
778
782
785
786
787
787
787
787
786
791
793
795
797
802
807
810
813
816
813
812
816
815
819
822
829
835
844
855
856
866
868
874
877
883
887
895
900
907
909
918
922
923
926
930
930
932
933
933
935
938
937
931
927
917
909
900
889
880
870
861
854
847
845
835
826
813
808
795
790
783
776
771
768
771
768
768
766
763
759
758
756
753
750
749
750
749
755
752
752
752
750
750
749
749
749
748
752
754
755
758
756
756
754
750
749
749
748
750
751
755
760
757
759
756
754
750
747
744
745
744
746
747
748
748
748
746
744
745
744
741
740
742
741
741
742
741
738
739
735
733
732
730
729
729
731
733
735
736
735
731
731
730
728
728
728
729
728
732
732
730
731
733
732
730
731
730
729
732
735
739
740
746
746
746
745
745
745
744
743
743
745
747
751
755
759
763
763
762
762
759
757
753
752
750
749
747
748
747
746
739
738
732
725
719
711
708
710
712
711
712
711
715
714
714
715
718
717
719
721
723
723
725
724
736
753
788
842
911
1003
1102
1207
1306
1386
1438
1449
1408
1303
1175
1047
919
791
663
602
657
719
766
783
777
758
738
722
714
714
713
721
722
723
723
724
721
721
725
724
728
728
727
733
732
735
736
734
736
737
739
739
747
750
753
754
756
757
757
758
762
762
766
766
771
777
781
789
795
796
800
802
806
807
812
815
821
829
837
845
852
857
863
866
870
869
871
868
875
879
881
884
890
890
889
881
877
870
861
854
848
841
831
830
822
814
805
792
782
772
764
756
751
752
750
751
754
750
749
747
745
741
741
737
738
734
738
742
741
739
741
739
736
737
737
740
745
749
752
758
756
756
757
751
754
750
747
746
746
748
752
757
762
763
763
758
757
755
750
749
748
753
756
762
755
758
757
751
749
747
748
748
746
748
748
753
753
750
751
746
745
741
739
740
745
749
753
756
754
758
752
748
748
743
739
742
740
743
743
747
748
750
752
749
748
747
745
743
748
749
753
756
756
756
755
753
750
755
756
762
767
774
778
781
779
782
779
776
772
772
778
781
786
789
795
799
799
796
790
792
789
784
780
779
778
779
782
782
782
776
770
762
756
751
748
746
747
748
747
753
752
750
749
748
750
750
751
755
754
754
754
755
756
759
764
779
803
843
899
966
1043
1123
1206
1288
1359
1418
1461
1478
1461
1393
1265
1137
1009
881
753
668
713
772
813
834
828
814
786
767
759
759
761
764
767
767
764
761
762
762
763
765
768
769
768
772
773
777
779
778
776
774
773
771
775
779
782
786
788
790
793
794
795
794
797
797
800
802
807
816
822
825
829
828
833
832
836
844
848
857
864
871
880
883
890
893
898
903
908
910
916
923
927
930
933
936
932
931
928
924
920
920
917
918
910
901
889
880
865
848
838
828
823
811
809
805
801
801
797
793
791
785
782
778
775
772
771
773
773
773
771
773
773
770
773
772
772
771
772
770
772
773
778
778
779
775
772
773
772
774
776
779
781
782
778
781
780
777
775
774
772
774
775
775
779
781
782
782
779
776
776
771
772
771
768
773
773
778
777
774
773
770
769
768
767
768
769
769
768
768
767
767
767
764
764
761
760
759
760
763
765
769
772
771
770
767
765
764
761
762
764
764
764
765
768
771
769
768
769
767
770
774
778
784
789
793
790
789
781
779
780
780
782
787
793
797
802
807
808
806
802
797
795
792
790
791
793
794
791
789
787
779
773
766
756
754
748
748
747
750
753
756
759
757
759
759
758
756
755
748
747
750
750
756
761
771
785
809
847
900
968
1048
1137
1231
1321
1402
1464
1500
1507
1484
1425
1322
1194
1066
938
810
682
690
741
795
830
842
834
811
792
769
760
759
764
767
771
775
773
772
770
767
765
767
765
768
768
773
776
778
778
781
781
781
779
779
781
787
789
789
793
796
795
795
796
797
799
803
807
812
815
819
826
831
834
838
844
843
845
845
853
857
865
874
883
889
898
900
905
908
909
916
920
925
936
940
942
942
941
940
938
934
931
924
920
911
905
900
892
883
872
858
842
833
824
814
811
808
803
801
799
797
794
791
788
781
783
781
779
783
780
782
782
779
779
777
778
777
774
773
773
777
779
784
787
787
784
782
777
776
781
782
782
784
785
786
787
789
787
784
788
783
784
781
782
781
782
783
787
787
787
786
782
781
780
780
779
775
775
775
778
778
781
777
775
772
771
771
774
777
777
778
780
777
772
773
768
767
766
766
764
765
767
769
772
778
775
773
769
767
764
762
763
765
767
770
769
770
771
773
777
781
782
784
783
782
784
786
789
790
790
792
788
790
793
796
803
802
803
805
804
804
802
795
791
788
786
783
780
778
773
770
769
763
760
755
752
748
748
748
750
751
755
758
759
760
756
754
752
753
750
751
754
757
767
784
807
837
880
938
1010
1094
1190
1291
1381
1452
1487
1485
1439
1332
1204
1076
948
820
692
682
734
787
824
836
828
809
786
772
761
760
761
762
765
765
765
762
759
754
755
757
759
758
761
761
765
767
773
773
776
777
778
777
776
776
775
778
778
786
790
794
794
797
796
798
802
803
802
800
804
810
816
819
832
835
841
844
846
849
856
862
867
875
880
886
892
898
903
905
908
908
909
909
909
910
914
915
918
917
915
907
901
894
885
873
862
856
847
839
840
832
825
815
805
796
788
782
774
772
767
766
767
764
764
763
761
758
758
754
753
751
753
754
755
755
754
751
750
752
748
749
749
751
755
756
759
760
761
760
760
755
756
754
752
758
755
763
763
762
762
757
754
750
749
747
748
749
751
756
758
760
761
757
754
749
745
743
744
748
748
748
748
746
745
738
737
737
740
739
740
740
743
743
746
744
743
739
737
732
729
728
730
735
740
743
745
745
739
733
729
726
728
726
728
729
728
732
739
741
747
748
748
751
748
748
744
743
749
750
754
755
755
758
759
761
765
767
769
769
766
764
765
764
761
758
758
757
757
753
752
749
745
742
739
734
729
730
727
728
730
730
729
730
732
734
736
737
737
735
732
733
733
735
738
757
780
814
863
922
991
1069
1153
1241
1324
1394
1437
1446
1409
1317
1189
1061
933
805
677
626
662
718
765
793
801
793
783
768
758
751
750
750
753
754
755
759
759
758
761
762
761
761
763
762
765
767
767
770
773
777
780
780
784
784
782
785
786
784
791
791
796
799
804
806
808
807
807
808
811
816
817
826
834
839
846
850
853
857
861
868
875
879
883
893
897
901
910
915
916
919
920
919
920
917
917
921
925
925
924
919
912
901
890
880
870
861
854
848
843
834
832
824
819
810
804
797
792
787
782
780
780
782
787
789
786
781
779
776
776
772
773
776
778
780
783
784
784
782
781
783
781
780
784
786
789
789
792
788
789
790
786
786
790
790
790
795
796
796
798
799
797
795
792
790
788
784
781
784
785
788
790
793
791
787
785
783
778
774
779
784
786
785
787
783
782
778
780
783
778
782
780
785
785
786
785
787
787
783
781
778
778
773
773
775
777
782
785
786
784
780
777
777
774
773
775
781
785
793
803
806
807
804
800
800
799
799
800
801
807
814
819
819
822
823
819
817
815
810
813
813
812
815
816
812
808
804
799
793
789
783
776
771
771
774
779
779
784
784
782
779
777
775
774
775
778
775
780
782
783
789
800
818
850
896
959
1037
1120
1208
1301
1386
1455
1497
1508
1478
1396
1268
1140
1012
884
756
696
745
803
851
865
861
841
818
797
786
789
790
797
804
803
802
797
795
789
788
786
786
791
799
802
804
802
805
807
804
806
806
801
803
809
812
818
821
823
823
824
823
820
824
828
833
839
846
850
853
849
850
850
853
857
864
870
880
888
891
899
905
909
915
918
921
927
928
934
939
938
949
955
960
963
964
961
954
950
945
940
934
935
928
919
911
901
890
881
871
863
855
847
841
835
831
830
824
821
815
811
809
805
804
802
806
806
806
806
804
802
801
800
798
800
796
798
800
802
802
806
808
806
805
805
803
805
804
806
805
810
810
811
813
809
813
811
810
810
811
813
812
813
815
813
810
811
806
802
803
801
803
805
806
807
805
808
809
808
810
805
800
797
797
796
801
800
800
802
804
804
800
798
800
798
795
797
797
795
794
796
798
798
798
797
794
792
793
793
798
799
802
802
805
802
801
802
801
802
804
811
815
820
818
819
819
819
819
820
823
822
825
831
833
833
836
834
831
827
828
828
828
821
820
820
820
820
814
809
806
801
795
790
787
783
782
778
778
783
790
792
797
797
792
788
784
781
780
777
777
783
789
798
815
840
874
927
992
1071
1150
1232
1320
1398
1462
1498
1510
1487
1421
1304
1176
1048
920
792
708
742
795
840
864
864
851
832
809
797
790
788
792
796
794
794
793
791
787
783
784
786
787
789
789
792
796
801
800
797
800
798
798
796
796
798
801
804
808
810
815
817
817
818
815
818
821
822
829
828
829
830
837
844
845
848
853
857
859
863
865
873
877
889
893
898
903
902
906
909
918
925
931
935
940
943
942
945
946
947
948
944
944
939
937
935
932
925
922
912
902
887
879
867
861
850
845
835
831
824
819
814
805
794
788
785
785
785
783
787
789
790
790
790
786
780
778
775
775
773
772
778
781
781
782
784
784
784
782
779
781
778
779
783
784
787
788
783
785
779
775
776
778
779
781
785
785
791
792
792
791
786
782
777
775
773
774
776
778
780
785
783
782
780
778
772
773
767
767
772
776
775
779
778
770
771
772
771
771
769
768
771
769
771
774
773
772
771
770
770
768
764
765
765
771
777
781
779
778
778
781
778
781
784
783
784
789
788
790
793
797
796
796
798
800
804
805
809
808
810
812
810
804
796
792
788
790
792
792
793
790
788
784
776
775
766
760
756
754
758
760
756
761
760
763
767
770
771
769
765
763
759
760
764
772
789
813
845
893
960
1033
1119
1211
1307
1391
1454
1487
1475
1417
1301
1173
1045
917
789
661
681
737
787
822
830
827
815
797
783
770
765
767
767
769
771
771
772
774
774
771
771
774
774
774
774
776
776
780
779
785
786
787
786
790
788
791
792
793
798
802
805
808
811
813
814
816
814
819
821
825
830
833
836
844
850
848
859
856
864
867
870
875
881
891
895
902
909
912
914
919
922
923
928
932
933
936
935
935
932
931
929
925
918
913
901
894
891
885
879
873
864
853
844
835
825
815
807
803
801
797
799
798
796
795
794
793
792
789
789
789
789
788
785
788
783
788
786
785
787
788
783
790
790
796
798
802
801
802
798
795
793
796
794
797
801
799
801
799
800
800
803
800
801
799
798
796
798
800
799
804
806
805
801
798
793
795
795
797
797
799
801
799
797
797
798
794
791
788
789
786
787
791
792
795
794
795
795
791
790
785
783
787
788
792
793
794
794
796
795
793
792
786
785
783
788
791
794
795
794
794
796
794
793
794
796
801
809
811
822
824
826
826
819
819
817
814
818
818
826
834
836
840
842
836
832
827
825
822
819
820
820
822
822
820
815
806
799
792
793
785
783
783
786
791
794
796
795
793
792
790
791
791
791
791
793
796
802
812
830
861
909
975
1054
1144
1243
1340
1424
1485
1518
1514
1466
1358
1230
1102
974
846
718
743
798
845
869
865
855
834
815
803
799
797
797
800
802
799
805
808
808
811
807
805
808
808
807
806
806
811
810
817
818
819
822
820
820
821
822
827
828
830
835
842
843
846
845
847
846
849
854
859
864
870
875
883
890
893
896
899
902
905
911
921
930
941
949
957
957
957
956
957
957
957
961
962
965
970
970
966
961
956
944
930
918
911
897
887
881
874
868
865
857
848
843
833
831
827
822
819
817
817
815
817
812
811
811
808
806
802
803
802
803
806
808
814
813
813
809
809
806
805
805
805
810
812
814
815
814
816
817
813
811
808
810
810
812
813
818
821
821
822
820
816
812
810
809
810
810
812
812
814
815
814
811
810
806
806
805
804
803
810
812
813
812
808
806
803
797
797
797
795
799
797
800
806
808
808
808
804
800
800
798
796
794
800
802
804
803
805
802
802
803
804
801
800
804
807
815
823
826
824
825
818
819
819
819
820
823
827
830
838
843
841
845
843
838
836
832
829
830
831
834
834
836
832
827
817
812
805
796
793
790
791
792
798
797
796
793
788
790
787
784
782
788
790
792
796
794
795
793
790
794
804
820
848
885
936
997
1069
1145
1225
1304
1378
1438
1479
1495
1490
1456
1383
1262
1134
1006
878
750
724
766
821
859
874
870
850
828
811
801
798
801
803
804
804
800
801
799
801
803
809
807
808
810
806
805
808
804
808
811
812
815
819
820
820
818
821
820
820
822
828
830
837
841
843
845
846
849
851
854
856
860
862
865
871
877
889
899
904
910
915
919
920
920
922
927
931
939
946
953
959
962
964
963
960
960
955
955
954
948
946
937
928
916
906
895
886
877
869
862
854
845
842
836
830
823
815
808
805
798
798
797
799
800
800
803
802
799
796
792
787
785
784
789
790
790
792
793
793
793
794
793
793
794
796
799
801
801
802
797
796
795
797
798
798
797
795
795
795
798
801
803
803
798
795
797
792
789
788
792
794
796
795
793
796
794
793
791
789
785
783
783
784
784
787
788
787
787
784
785
785
783
778
780
783
783
787
786
781
781
776
774
779
778
777
780
780
782
781
786
789
790
788
785
788
789
787
791
794
798
804
803
803
806
806
806
807
809
806
809
810
807
807
808
803
803
802
801
798
797
793
793
790
787
785
780
772
768
764
763
764
766
766
768
769
772
771
773
769
770
769
767
766
761
763
770
786
802
824
862
909
969
1042
1124
1211
1303
1388
1455
1491
1486
1437
1325
1197
1069
941
813
688
713
763
810
842
848
843
824
806
790
781
779
778
778
780
781
779
780
783
785
785
784
784
784
786
783
785
788
793
793
800
800
802
804
802
799
799
800
802
806
813
817
823
824
827
827
827
827
828
831
834
839
844
847
852
858
861
868
871
876
882
886
893
899
906
913
920
922
927
928
932
930
930
930
933
933
935
938
936
934
930
923
919
912
904
894
884
877
868
857
855
845
838
826
821
811
808
799
795
793
794
790
790
787
787
782
777
772
770
770
770
769
771
772
776
779
777
777
775
771
771
771
772
771
780
780
780
780
780
780
777
776
775
775
776
777
781
781
784
785
784
783
782
778
775
774
776
777
780
779
780
778
776
777
774
776
773
768
768
771
774
773
773
774
776
772
771
770
768
767
767
767
770
769
771
770
771
772
771
771
770
768
763
764
765
770
772
772
773
769
769
766
766
762
765
764
769
778
781
787
786
789
787
788
786
791
792
789
796
797
800
804
807
807
809
809
813
813
811
809
812
813
812
813
813
812
812
808
805
800
798
791
787
782
778
778
776
775
778
779
778
780
780
782
780
781
779
782
785
780
778
777
778
777
780
790
806
830
864
912
977
1052
1139
1231
1321
1404
1470
1506
1516
1498
1450
1353
1225
1097
969
841
713
699
738
794
836
857
858
844
826
806
796
790
790
794
798
798
798
801
804
803
799
794
798
795
793
796
796
800
806
809
812
813
815
815
818
817
814
816
816
818
822
825
830
832
833
833
835
836
841
848
849
852
857
863
869
873
876
880
882
885
891
899
902
910
917
922
927
931
939
942
943
946
946
948
955
956
960
960
963
966
966
963
959
958
952
945
937
925
920
910
899
892
882
873
862
853
847
838
838
834
830
828
829
826
823
819
816
814
811
808
807
804
803
802
808
811
813
809
809
807
802
803
799
802
806
808
812
814
815
814
814
812
809
807
807
810
814
820
824
822
822
822
818
819
818
815
813
816
814
817
820
824
826
824
820
816
810
805
808
807
811
813
814
818
817
817
816
811
808
806
803
802
803
807
811
808
809
806
805
802
804
805
805
804
807
806
808
809
808
807
805
806
801
800
800
802
806
805
804
808
807
807
809
806
806
806
806
806
812
817
824
831
832
833
830
827
825
828
825
827
828
827
833
837
848
850
847
844
839
836
835
835
832
833
837
842
840
835
828
819
812
807
801
798
796
796
801
802
803
803
801
799
797
792
795
797
801
803
799
798
799
801
807
816
828
856
895
955
1032
1117
1215
1316
1405
1473
1515
1525
1501
1438
1318
1190
1062
934
806
704
739
797
852
881
886
871
848
823
810
806
808
812
811
814
813
809
807
807
806
806
808
812
815
817
820
816
820
820
821
819
819
821
823
828
828
828
830
832
835
833
833
836
839
840
847
848
848
855
860
860
861
864
867
874
881
888
892
900
907
912
918
920
924
931
936
942
944
952
959
965
975
978
982
982
982
979
972
966
958
956
953
952
945
937
928
919
907
894
879
873
863
854
852
846
843
843
837
834
830
825
821
818
811
812
811
811
811
817
817
812
808
808
807
803
802
805
806
809
810
813
813
814
812
810
811
813
812
816
816
815
815
816
818
818
818
818
818
816
816
815
816
822
823
822
820
817
816
815
812
812
811
811
813
816
814
815
815
816
816
812
810
807
805
807
808
808
811
812
811
810
809
809
808
803
804
806
807
804
807
807
811
810
809
809
807
806
802
801
799
803
807
810
813
811
812
812
803
806
802
802
803
807
813
819
823
828
831
830
828
827
823
820
825
832
837
840
846
849
847
847
844
842
840
834
837
834
834
834
829
829
822
817
808
804
802
795
794
792
794
795
798
798
798
797
795
796
797
798
800
799
801
800
798
802
803
809
815
834
860
902
955
1023
1106
1203
1302
1389
1466
1507
1522
1504
1445
1337
1209
1081
953
825
697
722
781
833
873
885
873
855
833
816
810
807
808
809
809
808
807
807
805
808
808
804
805
810
813
816
816
815
815
815
815
817
818
824
825
828
830
830
828
830
832
830
835
837
840
843
847
854
856
856
858
860
861
863
870
875
882
887
891
900
906
907
914
920
924
926
935
942
950
955
958
962
965
967
968
970
967
965
962
960
959
956
953
951
943
931
920
913
899
889
877
870
864
858
859
858
854
845
839
831
823
821
816
814
817
815
817
821
818
818
811
812
808
806
806
807
809
808
810
813
814
817
816
813
812
812
812
809
816
817
820
824
824
823
819
817
817
820
818
819
816
821
823
824
821
826
823
820
818
818
813
814
817
818
817
818
817
816
817
818
817
816
815
810
810
808
807
810
811
811
811
810
812
805
806
804
804
809
808
809
811
811
807
804
801
802
801
802
802
803
806
807
810
811
807
807
803
804
800
800
804
810
811
816
819
824
824
823
825
824
822
822
821
824
826
828
832
837
839
839
842
838
834
832
833
832
835
839
837
834
831
828
820
815
813
807
803
802
802
804
799
794
794
792
793
791
792
792
795
796
799
801
805
805
803
798
793
794
788
796
810
836
875
933
1002
1090
1181
1274
1363
1438
1491
1524
1535
1530
1500
1442
1331
1203
1075
947
819
715
737
782
836
866
873
866
845
825
809
800
793
798
799
800
796
797
798
798
796
797
797
797
797
798
801
801
805
809
812
809
813
811
810
807
808
810
807
808
814
816
818
820
824
827
827
828
829
830
831
831
833
836
844
848
853
857
860
862
864
868
869
870
877
883
890
899
904
908
914
917
922
923
927
930
937
942
945
949
951
952
953
954
955
953
951
946
944
940
934
929
919
915
903
893
885
878
866
856
846
839
829
828
824
818
815
810
804
801
797
794
796
797
801
799
800
799
799
796
789
787
784
782
784
788
793
798
799
797
798
794
793
792
793
791
794
799
798
799
797
796
796
795
793
796
797
795
799
800
801
803
800
797
796
796
793
792
790
793
792
791
792
793
790
790
790
789
787
789
789
786
782
781
782
785
789
788
790
788
787
783
781
780
779
782
783
785
785
788
784
784
782
777
779
774
773
774
778
780
784
786
787
781
781
778
779
783
788
795
801
806
810
807
802
800
799
802
802
801
803
810
813
821
823
827
827
824
818
818
814
813
812
815
816
818
820
816
811
805
798
791
784
782
782
785
784
790
792
791
793
792
788
788
787
787
788
790
791
796
796
801
811
832
875
931
1007
1091
1185
1281
1372
1443
1497
1528
1533
1519
1478
1397
1270
1142
1014
886
758
705
752
809
855
872
868
851
829
806
799
801
800
805
808
807
810
806
805
803
802
800
803
805
806
811
814
815
814
815
818
817
818
817
819
821
821
823
826
830
830
830
834
836
838
841
844
845
850
857
861
860
866
867
869
874
874
882
891
897
901
908
914
921
931
938
943
943
947
944
949
951
953
960
962
964
964
965
963
958
954
948
946
938
932
925
919
908
897
888
878
871
863
855
851
848
841
838
833
823
820
814
812
810
808
807
806
803
801
802
803
806
804
799
802
800
801
804
805
807
810
813
812
814
812
810
808
808
810
812
810
814
819
820
821
820
816
816
815
814
812
810
811
812
813
819
821
822
825
823
814
812
807
805
806
807
810
809
811
808
805
804
803
802
803
804
805
804
804
805
805
804
805
802
801
800
796
794
795
798
800
804
804
807
809
804
806
803
798
797
796
793
796
796
798
801
800
801
798
795
796
797
794
796
799
801
803
807
806
809
813
817
817
816
818
818
822
821
825
823
823
824
823
826
829
830
836
836
833
836
832
830
827
824
821
822
820
817
812
810
808
805
802
798
794
790
787
787
785
785
786
789
789
795
793
795
792
788
785
782
781
789
801
823
862
919
990
1084
1191
1300
1400
1478
1521
1526
1496
1416
1288
1160
1032
904
776
683
726
786
841
871
870
857
834
816
802
801
799
799
797
798
796
797
797
796
802
805
806
805
804
805
807
806
809
806
808
809
813
814
816
814
813
813
815
816
819
825
829
827
834
840
850
853
854
850
854
854
857
860
867
874
877
883
890
896
904
910
912
924
930
934
938
941
942
944
946
950
952
950
951
947
954
953
952
950
947
943
931
921
911
899
893
884
875
869
858
854
849
846
842
837
830
822
815
810
806
804
801
803
806
805
803
801
801
798
796
798
800
803
801
802
800
802
803
804
807
805
805
803
807
807
808
810
813
817
818
820
818
812
813
810
809
808
807
812
812
814
815
815
816
813
810
808
807
801
803
805
804
805
808
803
804
801
799
797
794
796
795
799
799
799
795
797
792
788
785
782
779
784
786
791
793
795
794
790
790
789
788
784
785
785
783
785
786
788
788
788
788
789
785
783
783
783
785
788
790
790
790
791
791
796
801
804
808
807
806
805
804
806
806
807
809
810
812
813
813
815
817
820
821
826
826
827
822
817
813
811
808
806
806
807
802
798
795
793
792
788
784
780
774
771
773
772
776
782
783
784
785
778
773
772
775
775
774
773
779
782
793
810
834
878
937
1014
1104
1201
1302
1394
1462
1500
1511
1488
1422
1301
1173
1045
917
789
694
730
787
835
865
865
849
824
800
784
778
775
777
780
781
782
783
780
783
781
782
782
782
786
790
791
791
791
793
796
793
794
794
791
789
792
796
802
805
808
814
812
814
816
817
822
820
821
823
821
827
833
843
848
851
858
862
866
868
868
874
880
888
892
901
907
913
916
921
924
928
929
932
937
942
942
944
939
938
933
926
921
912
907
903
896
884
882
873
860
849
837
824
816
810
805
802
798
795
788
794
789
789
787
781
779
776
772
772
773
771
775
775
774
774
773
774
775
775
772
774
773
775
776
779
779
779
776
774
776
777
777
780
782
783
781
781
780
782
780
780
776
775
775
771
775
775
775
777
775
773
769
770
769
766
769
765
769
766
768
769
767
766
766
761
760
759
756
757
759
764
765
766
766
765
761
758
756
753
752
754
756
759
760
765
762
762
762
758
754
751
749
748
752
757
758
762
762
760
762
760
764
767
771
774
776
777
779
782
778
779
781
778
779
780
783
784
784
791
792
797
795
793
790
785
779
778
780
780
780
782
780
776
772
766
760
754
751
750
748
752
753
758
760
758
760
759
761
761
756
754
755
753
754
759
768
784
810
858
921
1002
1096
1193
1297
1389
1456
1496
1512
1483
1407
1279
1151
1023
895
767
655
697
755
800
826
828
817
795
779
767
763
763
762
764
768
770
770
772
770
773
772
773
771
770
772
775
777
782
783
786
783
788
789
788
787
788
788
789
793
794
801
805
806
809
810
811
815
818
823
824
829
833
835
840
843
844
845
847
853
861
868
874
879
886
894
904
908
910
911
913
915
916
918
922
923
930
933
935
935
929
921
918
911
904
897
887
882
875
869
864
849
847
838
828
820
808
803
799
798
800
799
800
798
795
793
788
783
782
778
782
783
783
785
789
789
790
789
785
785
781
785
788
792
795
796
799
798
797
796
793
794
794
794
794
794
794
799
801
798
798
796
793
792
792
792
794
796
798
797
799
798
794
790
787
786
784
783
781
782
786
787
791
788
787
787
784
782
783
780
779
778
783
782
781
779
782
780
777
776
777
778
776
778
781
785
784
779
780
774
776
771
770
770
771
776
780
782
785
786
781
781
777
778
783
784
786
793
798
801
801
798
797
796
794
795
801
803
805
810
812
814
820
818
816
812
804
804
803
803
806
806
806
804
806
801
798
788
783
777
776
772
766
765
769
770
771
769
771
771
771
770
772
769
770
771
772
771
772
771
774
779
789
807
841
886
950
1028
1116
1212
1311
1404
1473
1513
1511
1471
1369
1241
1113
985
857
729
703
761
818
852
853
839
815
791
777
771
772
778
785
786
785
782
778
778
775
774
777
781
783
785
787
787
788
789
791
792
792
795
794
797
795
797
801
802
806
809
808
806
808
812
815
818
821
826
828
830
836
838
840
844
847
851
857
862
870
874
880
883
890
895
898
902
906
912
916
922
927
934
936
938
942
939
937
936
934
933
931
933
933
931
927
920
908
898
887
875
865
855
846
840
836
829
828
822
816
813
807
800
799
796
790
788
786
782
788
785
788
787
783
779
776
777
778
782
786
786
788
785
781
784
783
781
780
780
780
779
786
792
795
796
791
791
791
787
789
790
790
795
795
799
801
800
800
799
796
794
791
790
787
788
792
793
796
792
792
790
786
788
789
789
786
787
788
786
789
786
784
784
780
779
776
775
777
781
784
786
787
782
782
782
779
779
779
775
775
773
771
774
776
777
779
782
778
777
775
775
776
778
779
777
781
782
782
783
783
784
787
789
793
797
801
804
807
805
805
803
798
798
795
796
800
809
820
821
823
816
812
808
803
802
805
802
803
804
800
799
799
795
790
787
784
781
776
772
769
767
774
777
777
777
775
776
774
775
775
771
771
771
772
778
788
799
822
865
925
1000
1094
1204
1312
1407
1476
1514
1522
1499
1437
1326
1198
1070
942
814
686
687
750
810
854
867
856
834
807
783
771
768
769
771
779
782
786
791
787
788
787
786
784
783
780
780
785
788
794
798
796
796
797
799
800
798
800
799
803
807
813
817
817
822
820
821
819
817
821
832
838
844
853
853
857
860
858
859
860
867
871
880
890
896
908
913
916
921
921
927
929
932
934
936
938
940
943
944
942
940
937
935
932
923
916
906
897
884
875
866
857
846
835
823
815
809
803
799
804
804
803
802
797
791
787
781
779
776
776
779
783
780
784
783
780
779
780
778
780
778
779
780
784
787
793
787
786
785
787
783
783
781
781
782
785
790
791
792
792
791
784
783
786
784
785
785
783
782
786
783
784
784
782
779
779
778
775
773
773
776
780
778
778
776
772
772
773
771
773
771
768
766
767
768
770
774
770
772
768
765
765
767
769
771
770
771
770
770
766
765
764
764
765
767
771
773
776
778
782
785
786
782
781
776
775
778
781
785
791
794
797
799
798
796
799
798
799
797
795
792
793
793
793
790
791
792
787
782
777
776
773
766
764
762
758
756
755
755
757
758
761
761
762
763
765
765
763
762
760
758
754
760
769
789
818
860
920
991
1073
1156
1242
1330
1407
1463
1492
1498
1467
1386
1258
1130
1002
874
746
666
704
756
798
820
823
813
805
788
777
770
766
766
765
766
765
764
767
770
772
777
779
779
774
776
775
773
776
778
780
783
789
788
791
791
791
793
795
797
796
796
798
803
807
814
821
825
827
826
825
826
830
834
838
844
852
858
859
868
870
875
881
890
894
899
903
909
912
918
920
924
922
924
925
926
929
928
930
930
922
920
914
906
900
891
882
872
862
858
852
849
843
838
828
818
810
803
801
794
791
793
795
795
795
796
794
794
794
792
793
791
792
791
793
790
793
793
791
792
790
793
791
792
794
795
798
803
806
809
809
808
804
795
794
794
797
799
802
802
802
802
806
804
800
798
796
793
791
791
791
797
801
804
804
802
798
796
795
794
793
792
794
794
795
796
794
794
792
788
786
785
782
786
786
793
795
796
795
792
789
790
786
783
781
783
786
790
795
797
797
797
794
788
786
781
781
785
791
791
795
796
799
799
802
805
807
808
809
810
811
813
816
819
820
822
822
821
816
820
822
824
825
826
824
828
825
820
819
816
814
811
808
803
803
802
800
796
795
790
787
785
784
783
784
781
785
785
787
791
790
785
786
785
784
783
781
783
788
796
817
845
888
945
1016
1095
1181
1275
1365
1446
1504
1534
1545
1532
1489
1403
1275
1147
1019
891
763
722
761
814
854
871
864
851
829
810
797
793
791
793
797
800
803
803
804
801
800
798
799
798
799
800
803
808
808
814
814
812
811
810
810
812
810
811
813
812
817
817
822
828
828
829
831
833
836
842
846
849
851
854
856
858
857
861
864
869
869
877
887
893
899
911
916
923
927
928
931
935
934
940
942
944
950
956
961
962
961
960
956
951
950
946
944
941
935
926
916
905
896
887
879
869
861
852
847
844
837
831
827
823
819
812
811
809
806
805
804
803
804
807
805
804
802
804
800
800
800
799
800
805
805
805
802
804
804
803
801
802
801
802
805
809
812
815
818
815
813
809
807
806
804
807
809
814
816
815
819
816
814
811
806
807
805
808
809
806
805
802
804
801
799
800
801
800
803
799
796
797
799
804
803
799
802
796
795
796
792
792
797
797
801
802
799
799
795
794
790
788
786
787
789
789
791
793
795
794
793
787
786
786
789
790
796
800
804
806
810
815
817
816
812
811
810
808
808
811
814
822
828
830
833
827
824
824
823
823
825
824
821
825
819
813
811
805
802
799
793
790
790
787
786
784
785
787
786
784
782
781
779
781
782
784
787
791
791
788
790
791
791
802
821
854
909
977
1067
1162
1267
1367
1450
1507
1538
1536
1509
1450
1345
1217
1089
961
833
705
701
755
813
852
865
857
839
816
803
799
795
796
793
793
794
792
790
789
790
790
793
793
794
798
799
800
800
799
801
799
803
804
809
812
808
816
814
814
811
811
813
811
818
824
830
835
838
836
839
838
837
839
839
842
853
857
865
875
882
884
885
889
891
895
904
909
918
924
932
941
944
950
953
954
954
954
953
954
956
958
957
954
949
940
931
924
916
906
895
888
877
870
865
859
852
844
838
832
825
820
817
812
809
804
802
805
804
805
802
798
795
794
794
791
794
794
796
799
800
800
799
796
793
790
793
796
796
797
799
801
801
799
803
802
803
804
801
802
804
805
808
808
809
808
808
805
801
796
793
793
797
798
803
803
805
803
801
798
797
794
793
794
798
799
801
801
798
791
792
789
788
787
789
792
795
797
795
794
790
794
794
795
796
794
790
788
789
792
791
786
784
781
787
789
789
789
789
791
791
791
791
795
794
793
793
795
799
802
806
808
812
813
818
816
817
816
820
816
816
822
827
829
831
830
831
827
822
818
813
815
816
814
807
805
797
791
785
789
786
784
783
784
784
785
784
785
783
783
781
780
786
789
786
783
779
780
789
804
834
885
952
1035
1125
1222
1321
1409
1479
1518
1520
1479
1387
1259
1131
1003
875
747
723
775
827
861
869
854
834
812
797
789
788
787
789
787
786
786
784
785
783
785
790
792
794
795
794
795
792
790
791
795
796
802
806
810
813
814
809
806
802
806
813
818
824
830
832
839
841
841
840
840
836
841
842
848
853
861
874
881
887
893
898
903
906
911
917
919
923
930
935
943
946
949
949
947
946
946
941
938
937
932
927
921
914
904
893
882
872
865
857
847
841
835
830
820
816
811
808
805
800
796
792
791
790
791
794
795
794
793
793
792
793
792
790
786
788
785
787
791
792
792
792
794
796
795
794
791
789
789
792
797
804
803
801
800
796
796
794
793
794
795
798
803
804
803
801
799
795
795
791
790
789
789
795
797
797
795
793
787
785
785
782
783
782
784
782
787
785
787
786
786
780
783
780
780
781
782
783
783
785
782
781
780
776
777
775
772
778
781
779
785
785
786
785
781
779
776
775
774
773
773
775
780
783
785
790
788
791
792
794
795
799
804
803
803
804
806
805
803
804
805
809
811
816
820
819
819
817
816
812
807
804
798
798
798
799
794
791
785
780
778
773
769
763
764
762
761
763
768
770
775
776
771
776
773
772
771
767
765
767
771
783
801
831
877
942
1022
1113
1212
1314
1404
1477
1520
1530
1514
1460
1358
1230
1102
974
846
718
688
743
801
839
855
844
824
797
777
766
762
760
763
767
771
772
774
774
774
777
777
776
772
774
772
775
777
779
782
785
787
789
788
786
788
783
786
789
792
796
802
807
807
812
812
813
816
819
820
827
827
835
844
845
850
851
856
859
865
873
879
885
891
897
906
911
915
918
917
919
919
921
923
926
931
932
934
931
924
917
909
901
891
879
868
855
848
843
841
834
827
820
811
801
794
788
783
781
782
782
783
782
783
783
781
779
779
778
775
777
776
781
782
782
780
781
781
782
783
780
782
780
781
785
787
785
790
785
787
785
782
786
785
786
787
789
792
792
788
788
783
781
780
781
778
780
782
784
786
785
784
782
778
775
778
774
774
775
774
776
781
779
779
777
779
775
769
765
764
766
769
771
773
772
772
773
768
769
768
768
765
767
768
769
769
770
769
766
764
765
765
765
764
767
769
772
770
771
770
771
770
775
776
773
775
780
785
789
790
788
786
784
782
782
788
788
793
794
799
803
802
799
798
793
788
786
784
785
784
782
778
775
772
765
760
756
750
751
753
753
752
758
757
759
759
757
759
757
755
754
756
752
753
759
766
777
794
824
871
933
1012
1109
1213
1319
1409
1471
1505
1506
1478
1408
1292
1164
1036
908
780
663
683
734
783
818
830
824
805
782
763
754
750
753
756
757
760
762
763
763
762
758
760
758
756
755
755
757
762
766
771
776
774
776
777
776
775
775
773
778
778
781
784
789
791
794
794
796
797
800
802
807
813
815
822
824
825
828
829
832
839
844
848
855
862
868
874
878
882
889
890
893
895
895
899
904
912
913
917
918
916
913
908
900
899
893
886
882
873
867
860
848
840
830
821
814
807
801
793
786
785
777
776
776
774
770
767
762
758
754
753
756
759
760
764
764
764
764
757
758
752
751
755
758
761
762
766
767
765
761
764
761
761
759
761
761
762
759
763
766
770
770
766
766
763
763
760
759
761
762
768
767
766
761
761
758
755
752
752
750
752
752
750
752
755
752
750
746
743
742
742
745
747
745
749
752
749
750
746
748
748
748
743
743
743
745
747
747
749
747
748
746
745
743
744
742
744
748
748
752
750
748
751
754
754
762
764
766
771
770
771
770
770
770
767
767
770
771
773
777
783
789
791
791
792
785
780
781
772
772
768
766
775
775
778
779
768
763
757
751
749
744
742
740
742
744
744
752
751
754
752
752
747
745
747
748
751
756
763
772
795
830
879
945
1026
1114
1208
1294
1378
1441
1483
1498
1488
1437
1341
1213
1085
957
829
701
663
707
761
802
820
819
803
786
770
761
755
753
754
754
757
761
761
759
759
762
764
766
767
770
768
769
770
773
773
774
773
771
770
771
777
778
785
788
794
796
793
794
794
793
794
797
797
803
807
810
816
820
826
831
833
837
839
843
846
851
858
863
872
877
883
889
890
893
899
901
905
906
911
911
917
921
914
917
915
916
915
912
911
909
908
906
902
895
887
879
868
858
847
842
834
831
827
823
823
818
812
808
800
794
789
788
787
787
787
784
786
787
785
783
780
779
781
779
780
781
780
780
782
787
786
788
788
787
785
785
784
781
786
793
795
799
800
799
797
796
789
793
789
791
792
796
796
797
798
798
796
794
791
793
791
788
790
791
793
795
798
797
794
790
788
783
783
784
785
786
788
788
789
787
784
780
778
780
778
780
781
785
786
790
792
788
782
779
776
774
777
778
778
778
781
783
784
784
782
782
780
779
780
775
776
777
780
783
785
788
789
793
792
795
795
796
799
799
805
808
806
808
806
806
811
812
817
817
820
821
822
821
821
818
817
816
811
805
802
800
796
796
795
792
789
787
781
775
775
772
773
775
776
773
773
775
777
777
778
779
777
777
775
779
778
790
813
851
900
973
1061
1158
1263
1365
1451
1506
1529
1517
1461
1348
1220
1092
964
836
708
724
783
837
864
870
856
834
815
797
788
788
788
787
785
784
784
789
789
792
792
793
797
798
795
796
794
795
795
800
801
804
810
810
809
809
807
808
808
811
812
816
819
821
824
823
827
827
828
834
839
843
851
855
861
866
869
871
876
881
884
892
896
899
904
909
916
922
929
931
936
937
932
940
938
942
944
948
952
954
951
949
940
934
927
918
910
903
893
889
881
876
868
857
848
842
834
825
819
812
811
806
806
807
807
806
807
802
799
794
788
789
792
794
794
792
790
793
790
788
785
786
789
788
794
799
797
798
797
799
799
798
798
794
793
796
799
800
804
807
809
807
805
804
799
795
796
797
799
799
803
801
802
801
798
796
792
791
788
789
791
793
796
794
792
791
789
787
785
782
783
783
786
787
788
789
790
788
786
786
784
780
778
775
777
780
784
788
790
788
787
784
782
783
778
778
779
779
778
785
787
788
788
791
794
797
798
799
805
805
807
807
809
808
802
802
805
805
809
815
822
828
830
828
828
822
817
812
807
806
804
805
805
806
802
801
797
793
787
780
772
767
766
768
769
772
776
777
779
779
779
777
775
776
776
773
771
772
774
781
795
815
853
911
992
1090
1203
1318
1425
1500
1537
1539
1495
1400
1272
1144
1016
888
760
670
727
796
846
867
860
835
809
787
775
772
774
777
782
784
789
787
788
784
786
786
784
785
787
790
793
792
794
794
794
791
792
793
797
798
801
801
804
807
812
817
821
822
822
819
818
818
821
825
829
835
840
850
856
862
863
864
867
868
871
877
883
893
901
907
914
924
925
930
929
933
935
935
940
945
950
948
948
945
943
940
932
925
921
919
916
908
898
889
880
865
853
841
834
827
820
813
812
811
811
811
808
804
798
792
789
787
786
784
785
783
786
786
786
787
786
787
785
787
786
786
788
787
792
793
794
795
791
789
790
787
788
790
791
792
797
799
800
800
797
796
795
795
796
796
794
795
795
794
794
795
793
790
791
791
788
783
784
784
792
792
792
790
786
781
781
780
782
782
782
787
787
787
787
783
782
782
777
777
773
774
776
777
777
780
780
782
780
779
777
775
773
773
775
779
779
783
780
780
777
776
776
776
776
774
778
783
788
794
798
803
803
802
800
802
798
795
801
802
805
810
812
811
810
812
813
817
817
817
816
815
819
819
816
814
812
809
805
803
799
794
792
786
783
780
777
772
773
768
771
773
772
773
773
771
772
774
775
776
775
773
772
773
774
777
788
806
838
883
949
1023
1112
1202
1294
1378
1448
1496
1518
1520
1503
1462
1376
1248
1120
992
864
736
687
739
797
842
858
854
834
810
790
779
775
775
779
779
781
782
783
785
784
779
782
781
782
781
782
780
782
785
789
795
795
796
797
797
794
795
796
794
794
802
803
810
811
811
812
810
809
813
816
822
825
830
836
835
844
846
851
852
857
864
873
879
886
887
895
904
911
916
918
922
928
930
933
935
937
940
943
947
947
945
943
937
934
930
917
907
899
895
887
878
870
860
849
839
831
822
812
808
804
802
801
802
800
795
792
788
785
782
780
781
784
786
786
787
789
785
782
781
779
781
784
784
787
784
794
798
803
800
801
801
795
794
790
791
793
791
796
798
799
797
799
798
793
791
789
789
791
797
800
802
798
800
795
791
787
784
783
783
783
788
789
792
792
791
789
787
786
783
779
778
775
774
776
783
787
789
785
786
781
779
776
776
778
781
781
783
781
780
781
780
777
775
778
777
779
783
784
785
787
791
794
796
796
797
794
795
797
799
802
803
808
811
808
807
809
811
812
810
810
810
810
815
810
810
807
806
804
804
799
793
790
786
781
778
776
775
770
770
768
767
767
767
768
771
772
776
776
776
776
773
772
768
764
766
771
784
806
844
902
977
1066
1166
1268
1367
1447
1499
1525
1523
1493
1428
1316
1188
1060
932
804
676
687
746
803
842
853
846
824
803
785
776
768
767
768
768
772
776
777
778
777
776
776
777
775
776
778
777
778
783
785
788
791
791
793
790
792
791
792
791
793
797
801
804
808
812
812
815
816
817
819
817
822
827
836
843
846
850
852
857
859
865
869
875
882
893
899
907
911
912
914
915
919
923
925
929
932
940
939
940
937
936
933
925
920
911
903
895
886
880
871
864
855
845
838
827
818
812
804
795
791
790
786
787
788
785
786
779
779
777
775
775
770
775
773
776
779
772
773
772
768
767
769
772
772
775
779
781
783
783
784
782
783
782
780
776
775
775
779
782
781
781
780
780
778
773
772
771
777
777
776
778
780
780
779
776
775
772
768
769
771
771
777
779
777
776
769
769
766
766
766
769
770
775
771
771
774
772
771
769
767
766
764
762
761
762
763
767
768
771
769
770
768
765
764
766
766
767
774
778
781
782
784
789
790
788
786
782
783
788
791
797
798
802
802
801
799
799
798
799
798
801
798
797
794
796
796
794
791
789
782
775
771
766
764
761
761
762
759
760
761
760
761
762
762
766
767
768
770
766
765
762
766
771
780
797
831
877
944
1026
1125
1230
1334
1423
1483
1507
1490
1420
1292
1164
1036
908
780
652
675
736
792
827
835
825
807
791
779
775
774
780
782
780
775
771
767
767
771
776
779
784
784
784
789
788
787
788
789
787
788
794
797
800
803
803
804
805
805
807
811
815
819
825
829
831
834
834
837
839
836
841
847
851
856
864
873
878
886
889
890
892
894
895
898
907
911
919
924
929
935
934
940
940
941
939
937
940
941
941
940
937
934
930
925
915
906
896
884
875
865
859
851
850
845
837
830
823
816
812
809
805
803
807
809
813
811
808
803
798
798
792
793
795
796
798
801
805
808
809
809
806
802
801
802
803
805
805
808
807
811
810
812
812
809
810
810
811
811
813
812
813
820
818
818
822
819
820
817
813
811
811
814
814
816
819
818
814
813
809
806
802
804
807
810
809
812
814
812
808
806
803
805
805
805
807
809
812
810
809
808
806
804
806
807
805
807
807
808
810
817
813
810
806
807
803
799
799
802
804
809
810
813
812
808
810
807
815
819
824
828
830
832
837
837
837
839
837
837
833
835
835
840
846
852
858
858
854
851
845
840
839
840
838
838
837
835
833
829
824
821
814
805
803
799
798
799
802
806
809
812
814
809
808
806
805
806
799
801
805
809
821
838
868
914
980
1056
1148
1241
1342
1432
1505
1541
1550
1520
1448
1323
1195
1067
939
811
716
752
816
871
899
905
888
863
841
823
815
814
810
817
818
822
820
820
821
818
821
823
824
826
820
822
823
823
826
829
830
834
833
834
832
833
833
835
840
843
848
850
850
855
855
856
856
861
862
870
873
879
888
896
902
907
909
912
914
918
926
930
934
942
944
956
961
962
968
973
973
977
981
984
987
989
993
995
990
986
981
975
968
963
956
950
942
938
927
919
908
898
888
874
865
855
854
851
853
853
850
846
843
839
836
832
829
829
828
826
825
829
831
830
830
832
829
828
826
825
821
822
827
827
830
833
833
834
833
834
833
835
835
837
838
839
841
840
839
834
836
836
835
835
835
836
838
839
843
841
841
833
832
834
828
831
826
825
825
826
829
829
832
828
834
829
824
826
819
819
819
823
824
828
830
829
825
825
819
817
818
817
816
818
820
822
822
820
817
815
815
812
814
813
817
820
823
824
822
818
820
825
829
834
835
837
840
841
838
840
841
842
840
844
845
850
851
854
855
854
855
856
856
850
847
843
842
839
837
835
835
828
825
825
818
814
806
808
802
803
805
805
812
815
815
816
817
815
812
810
805
805
803
805
815
829
855
898
953
1021
1102
1190
1286
1382
1461
1522
1551
1548
1511
1429
1301
1173
1045
917
789
747
795
851
887
898
893
876
852
830
819
809
806
807
809
813
817
818
816
818
818
819
815
813
813
814
813
815
819
818
823
828
829
829
827
826
829
828
828
833
834
834
832
832
833
837
845
849
854
855
856
853
858
865
872
881
889
891
895
899
905
908
914
925
936
943
947
951
954
958
964
967
971
972
973
975
977
975
972
971
967
962
955
947
935
922
910
897
887
880
873
866
864
859
848
841
834
827
819
814
812
809
807
809
804
803
801
801
794
793
797
796
792
791
793
793
795
791
791
794
793
790
790
791
792
796
799
803
805
805
808
805
801
799
793
793
797
800
802
804
807
806
803
798
795
792
797
795
797
798
797
801
801
798
796
793
791
789
786
788
788
787
787
794
791
790
789
786
780
780
777
778
782
786
786
788
789
786
780
778
776
777
773
776
778
779
778
782
780
781
780
781
776
780
781
778
778
779
782
785
791
793
795
792
793
795
792
791
794
795
795
800
807
810
808
806
807
808
811
808
809
812
810
810
806
803
802
801
798
798
796
790
786
781
778
776
775
773
768
764
760
764
761
763
765
767
769
770
770
772
770
768
763
766
768
773
788
813
847
891
948
1013
1079
1151
1225
1305
1384
1448
1494
1510
1484
1410
1282
1154
1026
898
770
675
715
770
816
839
841
826
807
790
779
772
769
769
767
763
768
769
770
772
774
776
777
774
774
772
772
773
779
785
786
790
791
789
787
784
781
782
782
784
786
792
798
801
803
809
809
809
809
808
809
812
818
824
827
830
835
835
838
841
841
852
856
863
870
878
887
896
902
903
907
909
913
914
916
917
922
923
928
931
932
934
932
928
922
916
907
900
889
879
867
860
851
843
838
831
823
811
806
797
792
791
791
786
780
777
773
769
765
760
763
764
765
767
770
772
771
770
767
765
761
757
757
758
758
758
759
768
773
774
775
771
769
768
765
766
766
771
770
776
775
775
773
769
772
766
768
767
770
771
776
775
775
772
771
770
768
770
765
768
767
771
772
772
772
772
768
762
755
760
755
758
759
760
760
767
765
766
768
765
764
764
762
759
759
760
761
764
765
767
766
764
765
766
764
762
764
764
764
767
767
769
769
769
768
770
772
773
775
780
785
789
792
790
790
786
784
785
785
791
792
800
807
813
810
808
803
798
798
792
790
788
786
787
784
781
777
771
765
762
762
761
761
759
758
761
763
764
762
764
761
762
761
762
759
760
764
771
784
805
837
883
943
1012
1095
1183
1275
1364
1440
1490
1506
1487
1429
1307
1179
1051
923
795
674
710
763
816
843
847
831
813
793
777
769
772
768
768
768
766
769
768
770
773
773
772
773
776
773
773
775
781
785
788
788
791
789
786
784
784
783
785
789
793
800
805
803
811
813
812
810
814
813
817
821
828
833
839
845
850
854
854
858
864
867
872
876
882
891
897
905
910
910
911
918
923
928
932
937
940
944
948
950
948
945
939
934
928
921
913
903
894
885
878
869
861
850
838
827
817
806
797
790
791
789
792
791
791
786
785
778
777
774
773
770
772
774
775
772
773
771
773
770
773
774
774
774
777
776
782
783
782
783
782
780
779
778
780
785
788
789
787
791
790
789
786
786
786
784
783
782
785
782
786
783
788
786
788
785
783
778
775
775
778
778
781
778
779
778
779
777
775
774
772
772
775
776
777
777
777
773
772
768
768
768
769
768
767
770
768
770
770
769
769
770
766
764
761
760
764
765
768
766
768
769
766
770
775
779
783
782
785
786
787
788
788
786
783
783
784
783
785
791
798
802
804
801
798
793
789
787
784
783
779
780
779
773
769
767
761
756
752
748
746
745
745
747
751
754
755
755
755
753
750
745
743
744
748
757
782
812
861
932
1013
1101
1197
1289
1369
1440
1487
1505
1498
1455
1363
1235
1107
979
851
723
687
736
787
818
827
816
796
775
760
753
752
751
752
756
755
755
753
754
754
757
757
758
753
754
754
753
757
758
763
765
766
767
769
770
767
769
770
772
773
774
778
784
787
791
794
795
793
795
799
800
800
804
810
812
820
831
836
843
847
854
856
863
867
870
876
885
890
897
902
902
907
911
915
915
913
914
916
913
911
906
904
897
886
876
865
854
841
831
823
813
810
805
798
788
781
770
761
754
750
748
747
748
750
751
748
746
741
740
738
736
737
735
740
737
739
740
738
738
739
736
735
735
737
740
741
742
745
747
748
745
743
742
739
741
740
741
747
747
750
753
751
752
754
750
747
743
743
743
747
748
749
747
748
747
742
743
743
741
743
743
745
745
746
748
745
743
738
736
735
737
736
735
732
730
730
734
735
738
740
738
737
737
735
734
733
734
737
738
737
736
734
735
736
735
737
738
737
740
741
744
746
747
748
751
753
754
756
751
756
757
758
761
764
763
767
770
770
774
772
773
775
775
778
779
779
777
773
770
764
761
764
764
764
762
759
756
750
745
738
734
731
732
734
739
742
747
748
748
748
749
749
747
742
741
741
739
742
740
749
763
784
819
861
917
980
1053
1138
1223
1314
1394
1456
1490
1488
1445
1346
1218
1090
962
834
706
661
713
771
811
827
822
800
777
761
750
748
750
756
758
761
766
760
760
759
757
758
759
757
758
762
764
765
771
772
773
770
769
768
770
773
774
776
776
785
789
792
794
794
797
797
799
801
808
811
814
821
826
830
829
833
842
845
850
856
861
867
877
885
897
903
906
910
914
915
919
921
924
932
937
944
948
949
947
944
939
935
933
928
923
915
908
902
894
883
871
861
847
841
832
819
814
808
805
801
796
791
793
791
785
784
781
782
783
781
780
784
785
786
786
784
783
781
782
780
780
785
784
787
789
789
790
789
789
785
787
784
784
786
789
797
800
800
801
800
800
798
798
797
798
799
798
801
799
800
800
798
795
796
794
791
791
794
794
797
799
799
796
795
792
789
788
785
788
789
791
794
796
794
794
791
788
786
787
785
785
787
783
789
789
791
791
787
787
785
787
787
785
787
788
790
789
788
790
787
786
785
788
788
792
797
803
812
817
822
822
818
811
807
803
803
806
810
814
818
824
830
830
829
832
829
830
827
824
822
822
821
822
824
824
819
815
808
802
795
792
787
786
787
787
788
787
787
787
784
784
781
779
785
787
785
788
789
791
790
787
793
801
819
847
892
954
1033
1124
1221
1322
1414
1481
1523
1536
1522
1470
1372
1244
1116
988
860
732
731
778
829
858
864
850
827
808
794
788
787
789
791
790
791
788
785
789
792
792
795
798
799
796
798
795
797
800
801
799
804
805
807
809
809
809
807
809
812
817
817
823
826
829
835
838
838
836
835
841
842
842
847
852
858
864
874
883
889
897
902
901
899
905
911
916
926
931
940
945
951
955
956
957
957
957
958
956
959
958
952
950
946
940
931
918
908
899
886
876
867
855
845
837
828
821
813
809
805
799
792
790
790
790
792
791
796
790
789
783
781
780
780
779
783
782
781
784
785
785
784
785
783
783
781
783
784
787
788
791
790
789
785
783
782
786
785
787
787
791
792
796
795
792
789
787
786
784
785
784
784
786
787
787
788
786
783
782
779
777
776
775
775
777
778
781
782
782
781
780
776
773
773
769
773
773
774
776
777
776
774
770
770
772
771
770
776
778
778
779
776
776
776
777
780
783
784
784
788
790
793
799
797
799
798
797
796
799
799
802
803
804
805
807
805
805
800
797
796
791
786
787
787
786
783
778
772
767
764
758
761
760
763
764
762
764
763
764
766
770
771
770
766
766
766
770
780
794
824
868
922
984
1061
1141
1223
1307
1382
1443
1482
1494
1475
1422
1318
1190
1062
934
806
678
668
717
771
813
832
830
812
793
775
764
759
760
761
764
766
769
769
772
772
770
770
768
767
768
769
769
769
771
773
775
778
781
785
789
789
789
787
786
785
787
792
795
798
799
799
802
807
807
808
808
814
819
821
828
837
840
841
843
848
852
855
865
871
881
888
893
901
899
904
908
912
916
922
926
931
934
938
940
937
936
934
931
927
922
908
904
896
889
881
875
868
857
848
838
827
816
808
800
798
795
792
792
790
791
789
788
785
784
781
780
780
779
778
777
777
779
775
771
774
776
776
774
776
780
783
787
787
789
790
789
785
783
783
782
784
786
793
796
796
799
799
798
796
794
794
794
795
797
797
795
797
796
791
789
787
791
794
794
794
796
798
799
799
797
796
794
791
788
787
789
790
791
792
794
797
795
793
796
789
791
784
788
787
790
795
797
800
801
801
798
795
790
788
784
786
789
793
796
798
798
802
799
798
797
799
799
805
810
814
817
818
819
817
817
817
817
819
823
827
833
834
843
842
839
838
833
827
826
825
825
826
824
825
822
820
816
809
803
799
795
787
784
784
787
793
799
800
801
801
799
798
796
796
797
798
798
800
803
809
820
842
874
926
990
1066
1147
1237
1324
1402
1468
1509
1523
1506
1450
1340
1212
1084
956
828
717
751
812
859
885
886
868
845
825
805
797
798
806
810
812
814
814
808
810
809
804
805
806
808
809
816
821
822
821
819
820
819
819
820
822
826
832
836
837
836
835
841
841
844
849
852
852
853
857
862
867
870
875
881
884
891
897
899
906
910
915
922
929
936
943
946
950
951
958
963
969
975
979
982
984
982
983
978
978
973
971
967
960
952
944
937
930
922
913
904
889
876
867
859
853
845
839
835
832
829
828
825
820
815
814
808
808
813
815
814
813
814
810
807
803
802
800
800
798
798
801
804
812
816
813
813
805
803
804
799
801
804
805
809
811
812
811
809
807
805
808
810
809
811
810
811
813
813
811
812
807
804
801
801
799
800
801
801
809
810
808
806
802
800
798
796
797
799
800
801
803
802
799
799
799
801
797
798
795
793
794
796
801
801
803
804
805
801
799
795
794
795
796
797
801
803
806
807
807
804
807
809
809
812
815
819
826
827
828
827
824
821
820
822
827
833
841
846
847
847
843
839
835
833
830
830
826
824
822
821
823
819
814
807
802
800
797
796
793
791
797
796
801
802
803
804
799
798
800
798
800
800
803
799
808
814
820
838
870
916
983
1065
1156
1256
1347
1431
1492
1530
1543
1534
1499
1431
1311
1183
1055
927
799
723
764
823
864
886
884
867
847
829
820
817
816
816
818
821
819
820
820
815
816
816
815
819
823
823
828
830
834
834
831
827
827
825
825
831
832
833
836
844
849
851
851
852
853
852
853
856
860
865
871
877
882
885
888
890
893
899
904
908
915
923
930
938
944
949
954
956
959
964
962
970
979
986
993
999
1002
1000
999
996
993
992
987
986
979
976
968
958
945
930
921
910
897
886
875
869
864
857
851
847
839
838
834
833
830
825
824
819
822
816
817
819
819
817
812
810
809
811
810
810
814
817
820
819
821
819
815
812
806
810
811
812
819
822
826
827
828
826
821
822
821
818
815
816
822
822
824
824
829
828
827
824
824
823
822
821
820
818
820
816
814
816
816
817
815
814
813
815
818
817
819
823
820
818
816
814
807
808
808
812
813
814
815
815
814
812
810
809
808
808
811
809
809
811
811
813
807
810
810
808
806
805
805
805
813
819
824
828
826
831
831
827
825
826
826
826
827
829
834
838
842
842
845
841
843
841
841
841
840
839
838
837
836
834
831
829
824
816
807
801
801
797
798
798
801
800
799
799
800
799
802
801
799
798
794
791
793
793
791
794
794
800
811
834
866
914
977
1050
1125
1209
1291
1369
1438
1489
1514
1517
1489
1419
1309
1181
1053
925
797
715
749
804
848
873
875
860
841
821
811
802
799
799
797
798
797
798
797
798
800
800
799
800
801
801
797
796
798
801
806
809
813
813
814
817
817
816
814
816
816
818
817
824
825
825
828
830
832
832
833
835
842
844
850
855
864
867
873
877
882
884
887
892
894
902
906
915
921
926
936
940
946
950
954
961
963
967
970
970
970
970
967
963
958
954
946
942
936
927
919
909
897
886
873
862
853
841
832
821
815
811
810
810
808
804
800
796
790
787
785
782
782
782
776
776
776
778
780
780
777
775
776
774
772
772
780
779
783
785
785
784
785
784
783
784
785
786
785
789
792
793
793
789
784
782
784
785
785
788
789
791
791
790
789
786
786
782
780
779
778
778
778
778
783
786
783
779
778
775
775
774
774
778
777
776
776
777
773
773
769
771
767
765
769
772
770
769
768
767
763
767
767
763
762
761
761
767
773
782
785
789
791
788
787
783
782
783
779
779
780
785
792
795
801
801
802
800
797
793
788
789
791
790
790
790
788
787
781
777
771
765
759
758
753
754
754
757
757
762
762
761
755
754
751
750
753
753
758
759
760
759
764
770
783
803
837
885
946
1015
1089
1170
1256
1337
1409
1461
1484
1472
1413
1301
1173
1045
917
789
661
685
736
785
819
829
821
802
783
772
763
760
763
766
763
763
761
759
757
758
758
760
764
766
765
767
768
769
767
765
767
769
770
772
777
781
783
784
784
787
784
782
782
785
794
800
802
806
808
809
811
812
814
817
821
827
835
839
848
855
866
872
877
877
880
879
886
890
900
907
915
922
925
926
926
926
925
923
922
918
917
912
905
898
887
879
870
856
847
838
823
816
807
802
794
790
784
777
769
770
767
767
763
766
768
767
768
768
769
766
764
760
758
756
752
753
754
758
762
767
771
774
771
771
765
761
765
767
771
772
772
771
774
775
775
774
772
774
773
775
777
779
781
782
782
779
778
777
774
774
775
773
777
779
779
783
783
781
779
779
775
773
774
772
767
772
768
775
778
775
773
769
769
767
767
768
770
775
777
781
778
781
777
774
769
768
771
772
771
772
773
773
776
776
772
774
772
776
777
780
785
790
793
796
798
800
800
799
798
793
796
795
799
803
808
815
819
821
821
821
815
811
810
809
808
811
809
810
809
803
795
788
784
778
775
772
772
771
777
782
784
785
782
783
783
782
780
780
779
780
780
784
785
792
805
827
864
915
982
1061
1146
1230
1311
1389
1453
1496
1516
1499
1441
1325
1197
1069
941
813
697
736
793
841
863
864
848
829
812
795
793
794
797
798
799
797
792
792
793
792
790
793
796
799
802
807
811
812
812
811
809
808
810
810
817
817
816
820
823
817
819
819
820
822
827
825
832
838
844
848
851
855
858
862
861
868
869
874
879
888
895
905
910
914
917
923
927
928
931
939
943
947
955
961
967
973
971
967
966
969
970
971
973
970
969
962
954
947
939
930
923
912
898
885
877
869
861
857
848
839
830
824
817
814
813
808
810
814
812
814
812
805
805
802
793
794
796
796
799
799
801
803
803
802
800
800
804
803
802
802
802
800
799
804
803
805
804
804
803
802
803
801
804
804
807
811
809
810
809
810
809
809
809
809
810
810
812
812
814
811
809
805
804
800
801
798
799
798
799
807
806
808
808
805
800
799
796
794
797
798
802
802
801
799
799
798
798
797
790
793
790
791
794
797
797
795
795
793
787
787
786
785
786
790
795
800
799
799
799
795
799
803
807
808
806
806
805
813
813
817
818
819
816
817
816
815
819
823
824
829
828
829
825
821
818
812
808
807
809
807
807
803
797
790
783
778
772
768
766
766
771
774
777
779
781
779
773
771
774
770
770
769
772
775
787
810
841
896
960
1029
1107
1190
1270
1354
1429
1482
1510
1503
1447
1331
1203
1075
947
819
691
723
779
823
848
847
831
809
787
773
767
764
763
767
772
774
774
774
774
774
771
769
770
769
771
773
776
781
783
783
787
784
785
783
783
782
784
786
789
791
792
797
804
805
807
807
809
812
813
815
819
820
824
833
837
848
854
857
862
863
868
875
880
889
898
902
913
916
921
921
924
927
927
930
931
933
935
936
935
926
920
912
902
891
875
862
851
847
840
836
829
821
812
802
790
781
775
773
771
771
771
770
767
766
767
764
760
759
756
754
755
756
757
758
760
759
761
760
758
756
756
754
755
757
762
764
764
765
763
760
760
756
756
757
760
761
764
766
763
762
762
763
763
766
763
764
758
761
761
765
765
766
765
763
761
757
755
754
756
760
761
763
763
760
759
754
752
754
752
752
748
752
751
753
754
756
756
755
752
748
750
748
747
751
757
755
757
758
757
756
751
750
746
749
752
755
757
765
771
773
774
772
771
767
765
765
768
772
775
779
779
783
786
786
787
789
786
784
786
784
782
783
785
783
784
777
775
770
765
755
752
752
748
747
748
747
746
742
740
738
738
740
740
744
746
750
751
750
748
746
747
748
756
763
782
810
850
909
979
1065
1160
1257
1350
1423
1467
1469
1418
1301
1173
1045
917
789
661
664
714
766
802
813
808
794
778
765
759
755
756
757
758
757
757
757
755
758
759
764
768
771
771
768
768
764
763
764
767
771
776
780
781
782
783
779
785
786
787
788
791
795
794
799
803
806
805
808
812
815
820
825
826
835
840
846
849
852
856
859
859
865
868
874
884
894
901
910
916
920
922
923
925
923
924
924
926
929
926
925
923
921
913
906
890
880
871
864
848
841
833
827
820
812
804
798
792
785
784
782
783
788
787
788
785
781
778
772
772
770
770
773
776
779
781
781
783
782
783
786
781
776
775
775
776
782
785
788
790
790
789
785
785
783
782
785
784
783
784
785
791
790
790
789
788
785
786
783
781
784
788
788
792
792
789
786
783
782
782
781
782
783
783
782
784
785
784
779
778
776
775
779
777
776
779
783
787
789
785
785
779
776
776
775
776
774
775
778
783
787
787
786
784
780
783
784
788
796
801
804
807
806
806
805
801
799
799
799
803
813
820
821
827
828
827
823
822
818
814
810
809
808
809
809
809
801
799
792
786
780
775
774
771
772
773
774
779
779
778
775
775
775
774
774
778
782
781
780
781
778
781
782
791
809
837
882
937
1006
1085
1169
1258
1348
1431
1488
1514
1505
1451
1346
1218
1090
962
834
706
740
796
844
871
871
851
827
803
792
785
786
790
795
795
796
794
790
789
787
788
791
794
794
800
797
798
796
795
796
799
804
805
806
808
810
812
816
814
815
813
810
814
815
822
827
826
831
837
844
846
844
843
848
850
854
856
860
866
876
884
894
894
898
898
900
905
911
918
926
933
941
946
948
955
960
963
963
962
956
958
960
960
957
955
957
950
941
931
919
912
901
890
880
872
865
858
848
838
829
819
808
802
796
797
796
797
795
797
795
793
787
783
780
778
774
776
776
777
781
782
778
779
777
779
775
775
777
777
778
778
777
778
780
781
782
780
779
779
777
777
779
784
786
789
789
787
785
781
779
775
775
772
775
778
782
781
779
780
775
775
770
769
769
769
768
769
771
771
770
771
769
770
768
767
766
766
768
771
770
771
769
764
761
758
757
757
759
760
766
769
772
772
770
767
764
762
760
761
761
764
768
776
780
784
784
783
781
778
775
775
781
783
785
789
795
797
797
800
799
796
795
794
791
788
783
786
784
789
788
783
780
773
767
757
753
749
748
751
757
760
757
754
757
755
751
750
753
756
758
759
761
760
761
770
776
795
824
876
941
1027
1121
1222
1319
1403
1464
1493
1489
1453
1374
1248
1120
992
864
736
648
678
729
782
817
826
815
795
777
758
754
756
761
769
771
773
772
772
767
763
763
762
768
770
775
778
780
777
780
778
777
780
781
784
786
788
789
791
794
794
792
797
800
804
805
808
811
815
822
825
828
840
843
843
845
848
848
852
858
865
874
882
889
894
897
904
902
910
914
922
925
931
932
937
939
938
933
933
930
927
925
920
917
910
901
892
884
870
862
849
841
833
824
817
812
805
807
805
801
798
795
792
786
780
778
778
778
779
778
784
783
784
783
777
779
780
778
778
786
784
787
789
788
788
788
788
787
787
785
783
788
792
793
797
799
800
797
796
793
789
788
784
786
784
786
793
793
791
793
789
786
787
783
784
789
790
791
789
790
787
786
780
781
779
779
781
779
779
781
781
782
783
781
778
775
776
776
779
778
779
778
781
782
781
778
778
779
777
777
776
777
780
782
785
784
785
783
784
783
784
784
793
799
802
807
808
811
811
808
806
804
805
809
812
817
821
826
828
828
827
822
820
817
815
811
808
808
808
805
802
795
791
786
777
775
775
773
775
778
779
782
786
787
786
788
784
786
782
780
775
775
780
790
803
823
860
913
980
1056
1138
1227
1312
1392
1455
1500
1520
1517
1485
1418
1294
1166
1038
910
782
708
749
803
851
871
867
846
821
807
799
796
798
797
802
799
799
800
801
800
797
795
794
794
791
796
798
805
811
812
815
814
811
807
807
807
804
815
817
821
829
830
832
834
837
837
838
840
842
843
852
857
861
862
865
868
869
873
881
886
890
896
902
912
924
933
939
942
945
945
949
949
949
958
964
969
977
976
979
977
973
970
970
965
959
951
943
936
930
920
909
900
888
879
874
864
859
849
843
834
831
828
824
819
815
814
811
807
807
804
803
803
807
809
807
810
805
802
799
796
796
797
799
805
809
809
807
806
805
803
802
800
799
801
803
809
811
814
814
811
812
807
807
809
804
805
803
801
806
808
809
810
809
808
806
797
791
789
795
797
798
799
801
797
795
793
789
786
786
786
787
788
789
790
790
789
785
780
777
780
779
780
782
781
782
783
779
778
777
776
773
773
775
776
777
775
777
779
780
781
780
781
781
784
786
792
791
796
800
799
798
794
789
788
792
791
796
801
805
807
811
808
807
807
805
804
798
797
790
789
787
789
791
788
784
781
774
768
764
758
757
752
753
753
757
756
757
755
752
754
750
744
742
743
744
746
752
754
761
767
774
786
807
842
896
966
1046
1140
1237
1333
1411
1467
1487
1470
1405
1280
1152
1024
896
768
640
662
717
767
799
808
802
783
765
749
744
742
743
748
748
750
743
740
735
734
735
739
737
739
742
748
752
750
748
746
746
747
749
753
754
757
757
759
761
762
761
766
764
763
767
770
767
773
779
788
792
793
792
794
796
799
806
812
818
824
831
836
839
843
846
851
856
863
869
875
882
886
891
893
893
894
890
887
888
883
877
871
869
865
859
852
846
837
827
816
801
789
777
771
762
758
757
751
745
739
732
729
730
731
732
733
734
733
731
728
725
722
722
723
721
720
720
719
722
726
730
731
729
727
725
725
723
721
726
728
729
732
732
733
733
732
728
727
730
730
728
729
731
734
738
740
741
740
737
733
726
722
724
725
726
733
733
734
731
728
726
721
723
722
723
723
727
728
728
729
727
727
727
726
727
723
724
721
724
730
732
733
733
730
727
725
729
724
723
726
732
735
741
744
745
745
744
744
747
748
751
753
755
761
761
763
765
768
766
768
771
779
788
798
812
811
810
805
799
791
788
786
784
783
787
788
786
784
782
783
778
775
770
765
762
761
761
763
765
767
771
771
773
773
771
768
766
764
764
771
780
792
814
846
890
948
1019
1101
1191
1279
1355
1409
1431
1402
1316
1188
1060
932
804
676
653
698
755
806
832
839
831
817
806
796
789
784
782
783
784
784
784
787
788
787
788
786
785
791
792
794
793
793
793
793
797
802
803
803
802
802
798
799
800
799
805
809
814
819
820
823
825
825
830
830
831
830
837
843
849
854
857
861
865
865
866
871
877
883
889
894
896
907
910
912
911
913
914
914
914
915
918
919
921
916
911
908
896
887
877
870
858
851
841
835
826
817
809
802
797
792
786
777
771
766
766
765
770
772
771
766
761
758
757
752
756
753
754
752
755
757
756
755
753
748
748
748
748
746
750
753
758
761
759
761
757
753
751
749
745
745
748
745
744
747
743
740
737
732
731
729
728
729
731
735
736
741
744
740
737
734
728
727
727
728
732
737
740
739
738
738
738
734
732
734
735
736
739
739
742
742
743
741
738
736
733
732
730
731
734
733
737
741
740
740
736
732
731
732
734
736
739
742
749
752
752
755
755
755
755
756
758
758
762
762
769
775
780
781
776
772
769
769
766
763
767
766
767
762
758
754
746
739
733
729
726
724
723
723
727
729
727
733
732
729
722
726
721
723
724
726
727
730
734
747
760
784
819
868
931
1002
1075
1154
1234
1312
1386
1440
1468
1456
1389
1265
1137
1009
881
753
633
674
727
771
795
795
780
760
745
735
731
733
740
741
739
736
731
731
730
732
734
733
735
736
740
743
746
747
746
749
750
751
751
750
753
752
753
758
758
754
756
760
763
764
763
769
774
778
781
785
789
792
792
791
790
796
802
807
815
817
827
834
841
841
845
850
852
860
866
875
881
887
892
895
899
902
903
902
903
903
902
903
902
906
905
904
902
892
883
871
856
843
828
817
811
805
798
795
792
785
779
773
767
765
759
755
754
751
749
751
753
750
749
743
739
739
741
741
746
750
746
746
746
743
740
737
735
734
736
738
739
742
744
744
743
741
742
743
741
738
736
739
741
746
748
749
746
744
742
735
737
735
735
737
737
741
740
743
740
738
737
736
733
733
735
735
739
738
736
737
738
737
734
728
727
726
726
729
731
736
736
736
737
738
733
732
733
731
728
726
726
729
732
736
733
735
733
729
730
729
726
728
729
734
739
748
751
754
752
750
747
743
741
741
746
751
754
758
758
762
763
764
767
762
761
761
761
759
760
756
761
760
760
758
751
744
739
734
728
720
716
715
715
718
719
716
717
717
718
719
720
721
727
729
732
733
729
732
731
739
756
788
836
900
981
1074
1173
1272
1360
1426
1462
1464
1419
1324
1196
1068
940
812
684
614
645
691
734
764
771
769
759
747
739
736
735
737
737
732
729
727
726
727
731
732
739
746
743
744
743
740
738
738
740
740
745
754
756
759
761
765
766
764
761
761
760
760
764
767
775
779
784
787
789
790
790
798
797
802
809
814
817
823
827
831
835
838
839
844
852
856
865
868
872
879
881
886
888
889
891
890
889
888
886
885
885
886
880
870
863
851
841
827
818
807
799
790
784
778
775
772
767
761
757
755
752
745
748
749
747
749
744
745
742
742
741
737
738
739
738
739
739
740
744
744
747
746
742
740
740
739
740
745
747
750
752
753
752
753
752
752
752
750
754
754
750
752
753
754
752
751
748
748
748
750
750
752
757
754
753
753
748
744
744
743
743
739
743
745
751
757
756
754
748
746
741
738
737
738
739
743
745
748
748
748
749
749
748
745
740
742
741
746
749
753
755
756
750
748
747
751
753
755
763
766
765
770
775
771
772
772
773
772
772
773
770
774
782
788
789
792
789
781
781
774
772
766
771
774
776
777
776
773
767
760
754
752
748
744
741
743
746
749
750
748
745
743
746
746
747
752
754
757
760
762
763
763
774
787
806
836
880
932
1000
1078
1160
1239
1305
1347
1347
1287
1173
1045
917
789
661
615
652
709
761
795
806
803
791
778
767
761
761
768
772
776
775
775
778
777
772
776
774
777
777
781
781
787
786
787
788
788
791
793
793
794
796
800
803
808
814
816
816
819
817
819
819
823
827
831
836
847
853
854
857
857
859
866
871
876
884
891
901
901
907
911
913
915
919
922
924
923
927
930
932
936
937
937
933
927
920
914
903
898
891
887
881
876
873
865
859
847
839
832
828
823
820
822
820
817
819
811
810
810
804
799
799
802
802
804
808
809
806
808
807
806
804
805
806
807
809
810
813
815
817
821
819
817
814
815
812
815
817
817
817
816
819
821
820
820
820
816
815
812
813
817
817
822
821
819
817
813
810
813
808
808
809
814
815
819
818
817
815
813
811
810
807
806
808
813
817
820
821
819
813
810
807
807
805
805
808
806
810
814
815
814
814
813
811
810
806
810
815
818
826
832
833
833
836
834
834
832
833
