863
863
863
863
863
863
863
860
857
856
857
855
856
856
853
848
843
836
834
827
828
820
821
820
821
822
826
825
825
822
820
818
816
817
817
816
819
819
823
822
823
822
822
819
818
815
817
817
820
822
825
825
828
831
828
827
828
830
832
837
842
852
875
908
952
1005
1057
1111
1166
1219
1256
1264
1238
1171
1075
962
842
745
692
684
706
745
778
803
811
818
814
814
817
820
820
825
825
824
822
820
823
822
824
826
827
824
824
825
822
822
820
820
826
826
828
830
830
829
826
826
826
822
821
820
823
824
829
828
828
829
826
826
823
824
823
825
824
829
831
832
831
832
832
832
828
829
830
832
835
838
842
842
839
843
842
844
841
842
845
847
851
855
858
862
866
867
870
870
870
872
878
881
886
889
896
899
902
905
907
908
909
911
910
914
916
920
924
925
924
922
915
909
905
900
895
893
890
890
880
879
874
871
867
861
858
850
847
843
842
843
839
842
842
840
836
835
829
828
827
827
831
833
835
836
836
834
832
830
829
830
827
826
826
829
830
835
834
831
831
829
827
827
828
832
832
835
834
837
836
834
833
835
832
831
830
828
831
832
833
838
834
836
834
832
827
826
827
830
832
832
836
836
835
833
831
829
827
826
826
824
825
831
830
833
832
830
827
826
825
822
819
824
826
828
830
828
828
827
821
819
816
817
819
821
820
822
827
828
826
825
821
818
815
815
814
813
816
823
825
822
821
819
817
818
817
819
817
819
818
817
819
823
821
824
821
819
821
820
816
817
819
821
822
824
820
824
820
820
822
818
820
815
815
817
821
821
821
822
824
820
817
816
817
820
822
822
822
823
822
823
821
818
819
816
817
819
819
820
825
827
826
827
823
820
819
818
818
816
821
823
824
828
825
822
818
820
817
814
812
818
819
821
821
821
821
820
820
818
818
817
816
819
819
820
826
823
826
825
822
820
819
819
818
818
818
821
824
825
824
826
825
822
823
823
822
822
822
824
828
831
826
826
826
825
821
822
822
820
823
828
826
830
830
827
823
825
820
818
819
821
822
827
827
830
832
835
832
832
832
835
835
841
844
847
845
847
845
850
855
859
862
867
867
870
868
868
868
863
860
860
858
857
856
852
852
848
842
839
834
833
827
827
825
820
818
813
812
812
815
817
816
819
819
820
817
816
810
811
810
810
812
815
817
816
814
820
820
815
820
814
817
815
820
823
823
829
827
828
828
826
826
825
825
826
829
840
860
891
938
992
1044
1098
1154
1203
1244
1250
1218
1150
1055
941
823
733
678
663
676
707
738
761
777
786
795
804
810
817
827
827
822
819
819
817
817
820
822
827
827
827
826
825
823
818
820
820
821
823
823
823
825
825
823
820
819
818
818
821
824
828
826
827
825
827
827
823
823
820
819
821
821
824
824
824
827
831
827
825
825
827
827
827
829
832
834
836
836
837
836
838
837
838
840
841
847
845
848
851
850
857
860
860
858
861
856
863
865
873
879
882
885
889
889
888
889
888
893
896
898
902
906
909
910
910
907
905
903
897
895
894
894
894
890
888
882
883
877
871
865
860
859
855
854
852
850
848
849
848
841
839
835
835
829
830
828
831
837
838
837
836
835
835
831
827
826
828
829
832
832
835
835
835
835
832
830
830
828
830
831
835
836
839
839
839
837
834
833
831
833
833
833
834
839
840
844
840
839
839
838
838
836
840
843
844
841
844
846
847
844
843
844
843
840
839
839
841
843
845
844
845
845
844
841
840
837
836
835
837
840
840
839
840
838
837
832
832
831
835
832
834
834
833
834
836
834
830
830
828
828
828
830
831
829
831
829
831
829
828
826
824
821
822
825
829
829
831
832
830
829
830
823
825
823
824
825
830
828
831
831
831
829
826
823
822
821
821
821
827
830
828
828
831
826
827
824
823
824
824
822
823
825
826
831
830
827
828
823
823
821
822
823
824
828
827
827
829
828
826
826
825
823
822
822
825
824
828
830
831
829
825
823
824
824
823
826
827
826
830
828
828
830
825
823
825
822
824
823
825
827
831
830
832
828
827
825
823
824
824
826
829
834
834
833
831
828
828
828
827
825
826
827
832
833
834
833
831
831
831
828
830
827
827
830
832
833
836
836
835
836
834
834
832
830
833
832
838
848
853
854
854
852
849
853
856
856
862
868
875
876
880
876
874
870
865
863
858
860
861
854
860
857
857
854
845
837
831
828
824
823
821
820
819
822
824
823
824
822
823
817
818
817
816
816
817
819
824
821
825
823
819
821
820
819
820
822
824
827
831
830
830
831
829
828
830
830
833
838
841
844
850
865
886
924
966
1017
1072
1128
1186
1244
1283
1288
1258
1189
1088
965
850
756
697
686
707
748
789
813
825
826
821
818
818
818
822
825
828
832
832
831
829
832
832
829
830
831
828
829
833
832
833
836
837
837
835
832
831
829
828
829
829
831
835
832
839
837
837
837
833
832
835
829
832
833
834
839
839
837
839
835
836
838
838
838
840
843
844
847
849
850
850
847
849
850
850
851
853
857
861
866
868
870
870
871
871
874
877
877
880
887
893
897
901
905
906
907
909
911
911
914
917
922
929
931
938
934
937
933
934
933
929
927
925
927
927
926
921
915
908
902
898
891
887
882
879
879
876
876
872
869
867
864
858
853
852
851
852
852
852
855
855
852
850
850
850
848
847
846
846
847
849
851
848
849
848
849
846
846
846
845
846
851
849
852
851
850
852
852
851
851
849
846
847
850
853
855
855
856
853
851
849
849
851
853
852
855
855
857
857
856
857
855
853
852
850
849
851
853
851
852
853
853
853
849
847
845
846
845
845
850
849
851
850
851
849
847
847
841
842
841
841
845
844
847
848
850
846
844
842
842
841
839
840
842
844
845
845
845
846
846
843
840
836
837
834
835
843
844
842
845
843
837
837
838
835
835
838
839
839
843
843
844
843
841
841
839
837
838
836
839
840
841
841
843
842
842
839
839
836
834
839
838
843
843
843
843
844
840
840
838
837
836
838
839
839
840
842
843
843
841
837
838
836
835
836
834
836
836
838
835
840
835
833
833
833
833
833
836
836
837
836
838
840
839
837
837
837
837
835
835
837
838
843
841
841
837
837
835
835
834
833
834
838
843
841
839
839
838
837
834
836
835
833
839
838
841
841
838
841
838
838
837
836
836
838
839
842
842
845
844
842
841
839
836
836
836
838
836
843
845
848
849
846
845
844
845
847
853
857
860
862
865
866
866
867
870
873
878
882
883
885
887
886
885
885
880
877
874
874
871
873
871
870
867
862
856
851
850
845
840
838
836
833
830
830
830
830
834
837
834
834
832
829
828
826
825
829
827
831
834
836
835
833
834
830
829
830
831
827
833
834
835
837
839
840
838
840
842
841
841
843
849
856
863
883
915
960
1019
1077
1140
1203
1260
1287
1276
1222
1130
1009
882
780
713
693
710
744
782
805
817
822
822
822
827
831
838
839
836
835
832
831
833
837
839
837
840
838
837
838
837
834
835
837
835
837
838
840
839
842
839
836
838
835
835
835
837
840
840
842
842
842
839
836
834
832
834
840
840
842
847
849
848
847
847
845
846
844
845
848
847
851
853
855
857
857
856
860
862
860
862
864
867
870
873
878
880
884
886
887
887
889
890
895
896
900
905
909
913
918
915
918
920
918
920
925
928
932
933
933
939
940
939
934
931
930
926
925
917
915
913
915
910
906
896
890
884
880
877
874
870
864
863
864
862
859
856
855
851
848
846
844
845
844
848
849
847
845
845
842
841
839
839
840
841
843
844
848
848
847
848
844
842
841
839
841
841
845
845
849
850
849
848
844
842
844
844
844
846
847
845
851
852
850
851
848
846
844
844
844
846
848
851
849
849
851
849
846
843
846
844
843
844
843
845
844
844
844
842
840
841
836
835
833
834
837
838
842
842
839
835
832
833
833
832
831
834
833
837
835
839
840
839
837
834
833
832
831
833
835
838
841
840
837
835
833
830
829
831
833
836
834
835
837
837
837
832
832
833
830
831
832
832
834
835
839
838
842
839
836
836
832
832
833
834
834
836
837
837
838
837
838
835
836
834
834
834
835
839
839
839
838
835
834
833
833
832
833
833
837
838
840
843
843
841
838
834
829
832
833
832
836
840
843
842
845
840
837
834
836
836
833
836
839
842
841
840
840
838
839
838
838
838
841
840
840
848
851
855
859
862
859
858
859
859
860
864
868
878
885
888
889
890
886
882
876
872
866
870
872
876
877
875
870
864
853
845
839
836
836
835
837
835
835
834
832
830
830
827
825
822
825
823
826
827
833
833
833
830
828
825
826
825
823
827
829
833
834
837
833
835
834
833
835
831
834
838
840
845
846
850
852
852
850
849
860
887
928
986
1046
1109
1174
1236
1281
1286
1250
1173
1060
932
810
720
674
668
691
726
759
780
791
799
804
812
818
826
833
838
838
836
837
836
835
836
834
833
833
830
831
836
837
837
843
842
837
837
835
834
834
835
838
840
840
841
843
843
837
836
833
832
833
835
838
837
842
844
844
841
839
838
832
833
836
836
841
842
844
849
850
849
850
847
847
847
849
851
854
857
867
870
871
869
869
869
870
872
873
875
883
887
894
895
898
897
899
898
902
903
906
910
914
918
925
928
928
930
930
926
925
923
924
921
923
926
924
920
912
910
902
896
894
889
882
883
880
874
874
872
869
866
862
857
852
851
850
847
852
852
854
855
854
850
848
847
845
843
845
847
849
850
851
850
851
850
847
847
844
844
847
848
847
848
849
850
848
851
853
854
848
848
851
851
857
855
858
861
859
860
856
857
856
856
854
854
855
861
860
862
860
858
857
854
853
853
852
855
856
860
860
860
861
859
854
855
850
849
847
850
854
852
855
858
858
856
852
850
848
848
849
848
850
851
852
848
851
851
849
846
846
842
845
844
849
848
850
848
851
851
847
846
846
844
844
847
844
845
846
849
845
845
844
843
843
843
843
842
845
847
848
845
848
847
848
847
846
844
847
841
843
843
849
848
846
848
844
845
842
839
839
842
846
845
850
848
850
848
847
847
843
843
841
845
846
848
846
849
848
848
849
845
844
843
844
842
844
845
849
850
849
847
845
845
845
843
844
844
847
849
852
857
860
861
859
861
861
861
864
863
865
867
874
881
883
890
889
886
887
885
876
880
879
882
881
882
877
877
872
871
864
858
848
843
842
838
842
841
840
838
835
833
829
829
829
830
831
829
830
834
831
829
826
823
824
822
823
827
826
831
833
834
835
833
833
832
830
831
832
836
832
839
839
840
837
840
839
840
836
839
843
848
856
862
877
902
943
991
1040
1092
1145
1203
1254
1297
1304
1275
1213
1118
1000
873
764
693
672
684
720
758
790
807
812
810
809
812
814
823
827
834
833
835
835
834
837
836
837
836
834
832
833
830
831
835
836
839
839
839
837
836
836
835
834
832
834
833
835
835
837
842
839
841
839
837
836
834
831
834
838
839
841
843
843
843
843
841
841
840
840
843
844
847
847
849
853
853
853
849
852
853
854
856
860
865
870
869
873
874
878
875
879
881
884
889
895
900
904
909
912
915
918
919
919
923
926
928
933
938
942
944
946
946
944
941
941
936
935
932
932
931
926
920
915
909
904
895
891
885
879
874
873
870
869
867
864
860
857
853
848
850
848
847
849
849
849
850
850
846
847
842
844
842
839
840
840
844
845
845
846
845
841
839
838
839
838
839
842
842
846
846
847
846
846
846
842
842
843
842
842
847
848
850
851
853
849
847
846
841
841
845
847
847
849
854
851
852
849
847
846
844
843
846
846
848
849
849
849
845
845
841
838
840
839
839
840
840
842
842
841
842
839
833
831
830
833
834
834
836
839
839
837
837
834
833
830
832
831
830
833
833
836
839
839
839
834
832
832
829
829
827
829
832
835
836
834
835
832
832
829
828
828
830
830
832
833
836
833
830
828
828
828
826
824
828
826
828
832
834
834
831
833
831
829
829
827
829
827
828
830
832
831
830
827
828
825
822
820
820
826
825
828
828
831
830
830
827
826
826
827
824
822
824
829
833
833
833
829
825
825
822
824
826
826
829
829
831
832
830
829
830
826
825
827
826
826
829
834
834
834
834
833
831
828
827
830
829
831
833
836
835
837
829
825
826
826
827
826
832
830
830
834
835
836
835
835
833
829
827
827
828
832
832
831
835
836
834
834
832
828
826
830
828
832
835
835
838
835
836
835
834
834
834
834
837
843
848
852
856
857
861
860
856
856
858
861
867
872
878
883
882
880
877
876
871
866
863
859
861
861
865
860
862
859
853
848
841
832
825
822
821
822
822
823
824
825
823
820
820
820
816
816
818
815
818
821
822
821
821
819
819
818
818
818
815
818
820
823
824
822
825
824
825
824
823
826
825
829
835
839
843
850
870
897
945
1002
1064
1130
1198
1261
1296
1296
1247
1153
1028
900
780
702
674
690
725
765
792
811
815
810
809
808
814
817
821
826
824
824
826
825
825
827
826
825
822
821
821
818
822
823
823
827
826
828
828
825
822
820
821
819
819
819
820
823
827
830
830
827
826
824
824
823
823
825
828
827
828
829
828
829
825
823
825
824
829
832
836
837
839
843
838
840
842
840
839
838
844
848
850
855
860
862
864
865
866
868
868
873
875
882
888
892
897
898
898
902
905
908
910
912
915
920
924
927
932
932
937
937
934
930
930
929
926
923
919
920
918
911
908
901
895
887
882
876
871
865
864
857
858
854
852
849
846
843
841
841
841
840
844
842
846
844
841
841
839
839
838
835
835
839
840
839
842
844
844
842
841
839
837
837
840
841
843
845
848
847
848
846
845
846
842
842
840
844
845
847
849
850
852
846
849
845
843
842
842
847
849
846
852
848
852
846
846
845
845
844
842
844
846
847
848
847
848
848
845
843
839
838
837
840
842
843
844
844
845
843
839
839
837
835
837
837
839
841
843
843
844
840
838
835
835
835
834
837
841
843
843
845
839
840
836
837
837
835
832
836
838
838
841
842
843
839
838
839
835
835
834
836
837
838
839
840
835
838
831
833
835
832
832
835
834
836
839
841
837
836
834
832
830
831
831
833
835
837
834
836
836
837
835
834
832
831
834
835
834
836
839
839
839
839
837
834
833
830
830
832
837
837
839
841
841
840
836
836
833
830
832
831
830
834
837
838
841
840
837
836
832
834
833
834
835
836
840
840
839
836
832
832
831
835
835
840
844
848
852
855
858
862
859
856
854
849
852
859
866
878
887
888
890
883
880
877
870
868
865
865
868
869
868
868
864
858
851
841
836
829
826
826
829
831
830
832
830
826
826
822
822
820
819
820
822
823
827
829
826
828
826
823
824
822
821
826
828
828
831
828
830
826
829
827
830
829
832
830
834
836
840
840
845
844
847
848
855
877
912
962
1018
1072
1131
1191
1243
1281
1287
1253
1189
1098
990
881
785
716
687
684
704
734
759
775
780
781
784
794
806
817
826
836
837
832
826
824
822
823
823
826
826
827
829
829
831
828
832
829
829
827
828
832
832
833
833
833
836
836
831
830
830
831
830
834
836
834
834
836
836
834
829
830
830
832
830
832
833
835
839
842
842
843
843
840
840
842
843
845
848
850
854
855
857
858
860
855
856
856
858
862
868
873
878
882
884
886
886
887
892
891
892
900
905
912
915
921
926
924
929
927
929
930
929
934
935
940
944
942
941
940
936
929
927
922
917
912
911
907
903
899
894
887
882
874
869
864
860
860
859
861
861
862
859
856
854
853
849
849
850
850
853
854
853
854
853
853
848
846
844
843
842
846
849
852
852
855
857
853
851
847
846
845
843
849
852
855
858
860
859
860
856
855
856
855
854
853
856
861
863
864
866
862
861
859
857
857
856
856
862
862
863
864
865
864
864
859
862
859
859
859
862
863
866
863
866
863
860
857
853
851
854
852
856
858
861
861
857
859
858
858
857
854
850
854
851
854
855
858
855
855
854
855
851
850
850
851
855
855
856
854
857
854
857
854
851
848
849
850
854
853
855
854
855
859
854
854
852
853
854
855
855
856
855
855
855
853
855
856
851
848
851
854
853
857
860
857
860
856
857
857
852
851
850
852
853
857
857
860
861
861
860
857
857
855
856
855
856
855
862
863
865
863
860
861
860
860
862
866
868
871
876
878
881
882
881
883
883
882
887
896
899
905
912
911
908
904
901
899
895
891
894
893
895
896
897
892
884
878
869
864
859
856
853
853
854
854
855
855
854
852
851
846
846
846
847
847
845
847
850
853
849
847
850
846
847
847
847
846
847
849
850
852
850
852
852
851
849
848
848
849
852
857
860
864
865
869
870
872
873
889
919
964
1019
1074
1132
1191
1255
1301
1319
1296
1230
1127
999
871
752
686
675
697
735
776
802
820
830
834
839
843
848
853
853
858
857
854
852
854
852
853
853
854
854
857
861
861
861
860
861
858
856
854
857
857
859
862
865
866
866
864
862
861
860
856
855
855
859
861
864
866
865
866
864
864
863
862
864
865
866
870
871
871
875
876
874
871
869
867
869
870
874
877
884
884
885
887
890
889
891
893
896
897
898
906
912
916
920
924
928
930
931
934
937
941
945
949
953
959
958
959
958
961
964
963
963
961
961
960
959
957
953
947
941
934
930
922
919
911
911
907
902
899
895
891
887
885
882
878
874
872
873
872
872
875
874
875
873
868
867
864
864
864
865
869
866
869
869
868
866
863
861
862
860
862
863
864
867
867
867
865
866
864
860
859
859
861
864
866
870
872
869
872
872
867
870
865
866
869
870
868
871
876
877
875
875
874
874
871
870
871
870
873
874
875
873
875
871
868
866
866
865
865
866
866
871
872
870
869
867
865
860
858
858
859
861
862
867
865
868
864
860
860
858
858
858
860
860
864
863
863
863
862
859
857
856
857
853
856
856
858
857
859
856
858
859
853
853
854
854
854
853
856
858
860
859
860
855
853
853
850
851
852
853
852
852
854
852
849
853
849
849
851
850
854
853
855
857
857
857
857
854
850
852
852
853
852
851
854
855
857
857
855
855
853
851
850
852
852
852
857
859
858
857
860
856
856
853
852
851
854
853
851
854
858
858
855
855
853
851
846
849
850
854
854
855
858
859
859
856
853
852
853
852
851
854
853
859
860
856
859
857
854
855
855
854
854
855
856
855
860
863
859
860
856
855
855
854
854
857
859
861
861
863
859
860
856
854
856
855
854
852
856
861
863
861
860
859
860
858
857
856
854
859
860
861
864
866
865
865
865
865
868
870
877
880
882
882
885
886
887
890
890
892
896
896
896
898
896
896
894
892
894
888
885
882
880
880
880
879
878
875
874
868
864
856
851
848
847
844
845
841
841
843
841
847
845
843
844
840
839
835
836
842
845
846
847
849
848
847
846
845
843
842
841
845
846
850
852
851
850
852
852
851
851
854
856
862
864
874
886
907
944
990
1040
1092
1146
1203
1261
1305
1331
1319
1265
1169
1049
921
800
719
690
701
738
780
816
835
839
835
828
831
830
836
839
841
846
847
847
846
846
844
843
841
841
842
841
841
842
844
847
848
848
847
848
848
845
843
844
843
843
844
845
845
849
849
848
848
847
845
842
843
841
844
848
849
848
852
850
851
850
848
850
848
850
847
852
856
859
859
859
857
856
854
855
856
858
861
866
871
870
873
876
877
878
878
881
881
883
888
894
899
902
905
911
913
915
916
921
921
925
929
935
941
944
947
950
952
953
954
952
952
951
956
955
953
953
949
945
939
932
928
921
917
916
909
906
902
897
894
889
887
881
875
871
869
867
864
867
868
868
869
866
864
860
858
857
858
858
859
858
862
861
864
862
862
859
856
853
855
855
856
857
860
861
860
863
859
860
855
854
851
853
857
858
860
865
863
865
864
860
859
858
858
858
858
859
861
862
864
865
863
858
855
855
854
858
858
861
862
860
860
861
863
857
859
858
856
855
858
859
859
861
860
859
857
856
853
852
852
851
854
854
854
857
856
855
855
854
849
850
849
849
847
852
852
856
856
854
854
849
849
848
848
846
848
847
850
850
851
852
848
846
845
846
845
842
844
845
850
852
851
850
850
847
845
844
841
844
841
844
849
848
850
851
846
844
842
842
843
839
842
844
850
850
849
849
847
843
842
843
842
842
845
846
846
847
850
850
849
847
843
841
845
842
844
846
848
850
847
848
848
845
846
840
841
844
845
848
848
853
852
851
851
847
847
845
841
842
843
848
848
850
851
852
846
847
846
846
846
847
848
849
852
852
850
853
850
848
847
845
847
848
850
849
850
851
854
853
853
849
849
850
847
849
846
850
850
850
850
850
854
852
848
849
846
845
846
849
853
858
860
863
864
865
866
866
870
871
873
876
876
879
881
889
894
898
899
899
896
892
890
887
886
888
886
884
882
880
877
873
867
859
854
853
849
850
845
848
845
843
841
839
836
836
839
841
844
847
844
840
841
840
838
836
838
838
841
843
843
846
847
843
844
844
843
844
841
845
843
846
849
853
856
857
857
858
858
856
860
869
888
922
967
1021
1075
1131
1193
1248
1283
1285
1250
1175
1074
959
849
760
707
701
714
749
777
798
812
814
820
827
833
845
852
854
854
851
846
843
844
845
845
848
848
853
855
856
854
852
849
847
846
848
848
849
853
854
854
853
850
847
844
848
847
848
846
849
852
858
859
860
858
857
853
854
849
852
855
857
856
859
860
860
861
859
857
852
861
860
862
864
870
874
875
877
878
876
879
878
880
883
885
889
896
904
905
909
908
907
910
913
916
919
923
927
935
938
942
945
944
948
948
948
952
955
956
959
957
958
961
955
954
947
946
941
938
931
929
925
922
923
917
909
905
902
892
888
881
880
880
876
874
873
873
877
877
874
870
865
865
864
868
866
867
867
866
869
868
869
866
862
861
860
863
865
867
869
866
869
867
865
861
865
862
861
864
866
867
873
873
871
873
869
868
867
866
866
866
869
876
879
880
881
879
878
873
871
872
872
877
874
879
879
878
879
882
877
877
875
876
870
874
873
875
875
873
874
873
871
872
871
870
868
870
870
871
872
873
871
868
868
866
867
867
865
865
867
867
869
869
868
867
866
864
862
862
861
864
865
864
865
867
870
868
867
863
862
861
860
858
864
864
866
866
865
864
860
860
855
857
858
862
864
864
867
868
867
865
864
862
860
863
864
863
863
864
867
866
868
866
863
863
863
861
859
859
861
865
864
865
866
867
865
862
862
859
862
863
863
866
868
870
867
868
866
867
866
865
864
864
865
866
868
867
868
869
868
867
866
861
861
866
865
869
871
871
872
868
866
864
866
865
864
864
863
868
872
873
877
877
871
869
874
873
876
878
884
887
892
894
891
893
892
896
900
903
910
915
915
917
915
914
914
908
906
902
902
901
899
896
898
899
891
886
881
873
867
866
863
861
861
856
857
859
857
860
858
857
857
858
857
855
855
856
857
856
861
862
860
861
858
857
856
855
854
852
857
857
862
863
862
862
862
863
862
861
859
861
865
871
871
877
879
880
883
891
908
939
984
1033
1088
1139
1195
1252
1297
1319
1306
1259
1178
1072
952
836
749
699
693
713
752
784
807
816
821
821
826
834
840
853
862
864
868
863
858
858
850
852
855
856
858
862
865
866
868
868
867
865
860
860
861
860
860
864
864
868
868
865
863
862
860
862
860
862
861
864
866
868
863
864
863
862
860
863
863
860
861
866
865
868
869
871
869
865
864
865
863
866
869
873
876
875
879
883
883
881
883
883
887
887
891
896
896
898
902
905
907
909
910
911
913
918
921
927
933
936
938
942
942
945
946
947
949
952
956
959
963
966
967
966
962
962
956
955
951
950
946
945
941
937
935
928
920
912
906
903
897
894
888
889
887
887
883
883
877
876
876
873
870
870
868
871
874
872
873
875
869
865
864
863
860
861
860
863
864
868
867
869
867
860
861
862
860
861
866
866
868
870
870
871
870
867
865
864
865
865
864
867
871
875
874
872
871
872
872
871
870
872
875
877
877
878
878
878
876
874
872
874
873
873
872
877
874
876
875
877
874
871
871
866
864
866
868
870
870
872
873
870
867
864
862
861
859
859
863
866
863
864
864
866
866
862
861
858
860
858
859
860
865
866
865
865
865
859
858
857
856
856
856
861
860
861
861
859
860
857
857
856
853
855
856
857
860
860
860
858
857
856
853
853
852
851
855
858
858
857
859
859
856
854
856
851
851
853
853
853
854
859
858
859
854
852
851
851
850
849
854
854
852
856
858
856
855
852
851
850
851
849
852
854
856
858
857
856
851
851
847
851
849
853
853
853
852
857
857
857
856
854
850
850
851
850
853
856
854
859
858
860
857
856
853
852
853
854
852
854
857
860
859
857
851
853
848
847
848
848
851
852
853
857
857
858
854
854
852
850
850
850
850
855
856
856
859
855
855
850
848
850
850
850
853
853
854
858
856
856
852
853
852
853
851
851
853
852
853
857
856
856
857
856
853
852
851
854
850
853
857
856
858
858
855
854
854
851
849
850
853
854
857
858
860
861
862
861
861
860
864
865
872
878
880
884
885
884
883
884
885
888
892
899
900
899
897
896
891
890
887
883
883
883
878
879
877
878
874
874
867
861
855
847
846
838
842
837
838
842
842
843
843
844
842
841
842
836
835
836
838
842
845
846
845
847
846
843
841
838
841
840
841
843
846
849
847
848
848
848
846
848
847
850
851
862
870
883
911
952
1003
1060
1122
1183
1248
1298
1320
1296
1236
1136
1008
880
770
703
689
711
754
798
824
835
835
833
829
828
834
836
841
844
846
841
843
844
845
845
845
846
845
843
844
840
840
841
843
843
845
847
848
849
847
842
840
839
839
839
843
843
849
852
850
849
848
846
844
843
839
840
843
843
846
850
851
849
844
844
842
844
845
845
847
851
855
856
858
858
855
857
858
858
860
860
863
866
871
874
876
879
881
880
882
882
888
887
893
899
903
909
913
915
917
918
920
923
925
929
932
936
940
947
948
953
953
951
950
948
947
945
943
945
940
938
935
932
928
919
912
907
903
899
892
888
885
885
881
877
875
870
864
861
858
853
855
857
856
859
861
858
853
853
850
848
847
847
850
852
850
854
855
856
854
854
849
850
851
849
851
851
853
854
855
854
856
847
850
849
849
847
850
852
852
856
854
855
855
853
851
851
851
849
851
853
851
856
858
856
854
850
850
847
848
847
848
852
850
851
851
850
851
848
847
846
841
841
841
841
843
845
848
845
843
839
836
839
837
836
836
838
841
842
841
840
841
837
836
835
836
836
834
835
839
842
842
842
842
836
835
833
830
830
831
831
834
837
841
841
840
838
832
831
832
831
831
836
837
839
841
839
838
834
835
833
835
829
834
834
838
838
835
839
836
835
835
831
830
831
832
832
833
836
838
839
837
835
833
834
832
831
834
837
839
840
841
839
838
837
834
836
833
834
832
835
838
841
841
839
838
834
829
832
827
832
832
833
838
839
840
842
838
837
834
836
833
831
834
837
833
836
837
835
837
835
835
833
830
834
834
838
839
839
839
840
842
835
830
836
832
834
836
836
838
838
838
836
836
835
834
833
833
832
833
834
838
840
837
840
842
839
838
835
835
834
832
838
843
847
849
853
854
857
857
856
857
857
860
863
866
871
874
882
884
883
883
880
872
873
876
872
871
871
869
871
868
865
860
855
849
849
840
835
838
834
831
831
829
827
823
823
823
822
821
821
825
822
824
824
822
822
821
821
819
821
821
823
824
825
824
825
826
824
822
825
823
823
821
825
825
828
830
835
835
835
836
837
836
840
841
854
874
906
955
1006
1056
1109
1163
1218
1252
1264
1234
1170
1078
966
857
763
699
680
691
721
749
775
787
794
794
802
809
814
824
830
831
832
830
824
823
822
823
827
830
830
834
832
831
828
828
830
829
828
832
835
834
834
834
832
829
830
827
828
829
830
831
834
837
836
835
835
831
833
832
830
834
834
836
838
841
842
841
842
840
836
838
838
838
841
843
843
847
851
852
852
849
849
849
849
851
855
858
864
865
870
875
877
879
877
880
882
885
890
896
904
909
911
912
916
916
915
921
920
926
926
930
935
936
936
937
936
931
928
924
921
919
916
913
911
907
902
900
892
886
880
877
869
865
863
857
859
860
854
855
851
849
845
841
842
843
845
845
850
850
847
845
843
839
838
839
839
838
839
841
843
842
844
843
843
839
840
837
834
835
837
842
844
846
847
849
845
844
840
840
841
841
845
849
851
851
853
853
851
847
847
847
844
845
848
848
851
851
851
848
847
848
846
845
845
845
848
849
847
848
850
852
849
846
845
842
842
843
842
844
846
847
847
845
843
840
840
841
839
838
838
839
842
841
841
842
839
838
836
835
838
840
839
838
842
840
843
840
837
834
834
834
834
835
836
839
839
841
837
840
839
836
836
835
832
835
833
836
839
840
840
839
837
834
832
832
833
835
835
839
840
841
840
842
839
836
835
834
835
834
834
836
837
840
838
839
834
833
831
832
835
835
838
838
840
843
840
840
838
838
835
834
833
833
835
837
839
841
842
843
840
838
837
838
837
837
837
837
842
843
844
840
841
840
839
839
837
837
836
841
839
843
844
842
843
841
842
837
838
846
848
852
854
858
864
863
863
863
861
863
867
873
879
885
886
885
887
884
879
876
873
870
872
873
873
874
870
866
858
851
842
838
836
834
833
833
832
832
830
831
832
832
831
827
827
826
823
825
825
827
826
830
826
828
827
827
826
824
825
829
831
832
834
834
837
833
837
833
830
832
834
834
840
840
844
849
850
853
861
873
906
950
1005
1062
1122
1188
1245
1285
1289
1249
1165
1055
927
799
708
659
655
679
718
757
780
796
802
803
809
811
820
823
830
834
835
835
834
836
834
831
829
829
829
830
830
835
836
838
838
838
835
833
833
832
829
829
834
832
834
839
840
837
837
835
833
829
830
833
834
836
836
839
837
839
839
836
835
833
834
837
838
841
844
847
846
847
848
846
845
847
848
848
852
854
856
862
862
866
866
866
867
870
870
877
881
882
886
891
893
896
902
901
900
897
905
908
912
919
921
925
927
929
931
930
930
923
929
928
930
929
926
928
925
922
917
913
904
899
894
892
888
884
882
879
874
870
868
865
860
858
855
853
851
853
852
852
851
852
852
842
842
839
841
841
844
845
848
851
849
849
846
844
841
841
840
840
844
845
846
850
848
850
848
845
843
839
840
844
845
846
849
853
851
852
851
848
847
846
850
848
849
852
854
855
854
856
854
854
851
849
847
847
851
854
854
853
852
851
848
847
846
845
841
844
846
847
848
849
850
851
847
846
846
843
841
841
842
842
846
846
846
845
845
842
839
837
836
835
838
839
838
838
838
839
840
837
834
835
835
832
835
836
833
836
836
834
833
831
831
829
829
830
826
829
830
834
835
836
836
833
831
829
828
828
829
831
831
833
834
833
830
832
829
827
829
826
829
831
833
834
831
834
835
831
829
828
825
827
824
828
832
835
837
834
834
831
831
830
829
831
831
833
835
837
837
836
836
832
830
832
832
831
833
833
835
836
838
838
833
832
830
829
828
825
830
835
837
836
836
837
836
835
832
833
830
830
834
835
838
837
838
834
832
832
832
833
831
832
833
835
836
838
836
839
838
838
834
830
831
830
831
832
835
837
839
839
836
834
833
833
833
832
834
836
838
841
838
839
844
842
841
843
843
845
850
856
860
864
866
862
866
867
868
872
873
875
880
882
881
880
879
877
874
867
869
865
861
862
857
854
856
860
854
847
841
836
830
828
826
826
822
821
823
825
826
826
825
820
821
818
819
819
819
821
824
825
825
824
824
823
822
819
819
821
824
826
826
825
826
825
829
830
828
829
827
828
832
836
839
844
848
852
861
875
899
942
992
1040
1099
1154
1213
1262
1289
1284
1240
1162
1053
931
810
723
678
683
714
763
800
821
828
822
813
809
812
815
820
826
830
833
831
830
830
826
826
823
822
824
826
830
829
831
833
831
830
829
826
826
825
821
824
825
828
828
830
831
830
829
826
827
824
826
828
830
831
832
833
836
836
835
831
831
831
832
835
836
835
836
840
840
840
840
837
841
840
840
841
844
851
854
855
856
855
856
855
859
858
860
867
867
874
879
880
883
886
889
889
892
892
896
900
908
911
914
915
920
923
923
924
928
926
927
932
932
935
936
934
934
929
927
920
915
909
903
899
898
897
892
888
884
876
866
862
860
854
854
851
853
851
853
850
850
845
843
843
839
837
836
842
841
841
843
843
845
841
838
838
835
834
834
834
837
839
840
841
841
839
841
839
837
837
836
835
839
841
842
845
843
842
841
840
840
840
837
841
838
846
845
844
842
842
842
839
838
837
836
836
838
839
843
844
844
842
837
836
834
833
835
834
835
838
838
841
840
841
837
837
835
834
831
833
833
837
838
836
837
835
835
830
827
829
829
828
828
831
832
830
828
829
829
831
827
827
826
826
827
829
829
832
831
834
828
828
826
825
825
824
827
828
830
831
830
829
823
822
823
822
823
825
826
825
829
834
832
832
831
831
828
827
828
828
828
831
829
828
832
829
827
830
828
826
825
825
829
831
832
831
832
830
829
830
827
824
825
827
830
831
829
828
830
830
829
826
825
827
825
827
830
830
832
835
831
832
833
830
828
828
827
828
831
833
832
834
834
830
834
831
828
829
827
825
827
830
834
835
835
835
831
831
831
828
827
830
833
833
836
836
836
835
835
832
831
832
828
829
830
833
835
837
837
836
834
833
831
830
828
829
835
835
836
836
836
838
838
834
832
834
833
838
840
844
851
854
856
858
856
857
855
850
855
860
868
873
879
880
881
879
872
866
865
862
854
858
861
861
861
861
858
856
851
842
835
829
826
825
822
824
825
824
821
821
820
819
818
815
815
817
817
818
819
823
825
823
818
816
814
814
812
812
814
819
819
822
823
822
822
823
821
821
823
824
825
829
831
835
839
839
842
849
857
881
916
958
1008
1058
1106
1155
1205
1242
1253
1229
1171
1089
984
873
777
715
688
700
726
756
782
794
798
801
802
806
812
818
824
829
827
825
823
820
821
821
820
821
825
824
827
829
827
827
824
823
820
820
821
824
823
825
827
829
831
829
827
826
826
823
822
822
823
824
825
829
830
835
830
829
827
824
826
827
831
834
833
837
839
837
838
837
836
838
837
838
840
842
843
851
851
853
855
853
854
855
857
862
867
871
876
880
878
884
888
889
892
892
896
898
904
909
908
918
920
921
924
925
924
927
928
928
933
933
934
934
932
930
927
921
916
912
907
901
899
892
891
890
884
879
875
870
863
860
857
854
855
854
854
853
852
849
847
844
840
838
841
836
840
841
842
846
843
843
838
838
834
834
833
833
835
835
838
839
839
839
832
834
833
833
834
835
840
842
843
844
842
845
844
845
841
840
841
840
840
842
843
846
848
845
845
845
841
840
840
841
840
845
847
849
847
848
847
843
838
840
840
839
837
844
844
844
843
842
841
836
837
836
833
834
836
840
839
842
841
841
837
834
832
828
828
827
834
837
839
838
839
838
834
835
833
832
830
830
835
835
839
840
837
835
833
831
827
829
830
827
831
832
833
836
834
836
835
831
829
828
823
830
829
831
832
835
834
837
833
833
831
828
830
829
830
832
835
836
838
837
834
833
829
827
830
828
830
830
834
835
835
835
838
834
832
829
829
830
831
835
836
838
836
836
836
835
833
830
830
828
831
834
831
837
833
835
838
838
837
834
833
832
832
836
835
838
839
841
840
835
834
832
832
835
837
840
839
841
841
841
840
840
840
841
839
843
844
852
858
863
863
862
865
860
861
868
874
880
885
888
889
890
887
886
881
877
876
875
871
873
872
873
871
868
857
850
843
836
835
835
833
832
832
831
834
833
832
834
834
831
831
830
826
828
828
830
835
836
835
833
830
827
829
827
830
829
829
835
834
837
838
837
837
833
835
831
833
833
835
839
845
849
850
852
850
849
848
850
856
873
901
942
991
1040
1090
1143
1194
1245
1275
1284
1247
1178
1078
960
841
747
686
672
684
714
744
768
787
795
805
814
818
829
834
839
842
838
836
834
830
829
832
836
840
843
840
842
839
838
837
836
836
837
839
839
844
843
843
843
840
841
837
837
836
833
837
841
842
845
844
844
842
841
838
839
838
838
838
840
845
842
841
845
844
844
844
842
845
845
847
850
855
858
860
859
860
859
858
859
861
862
866
870
872
877
880
882
882
881
885
884
887
890
892
897
903
907
914
913
913
915
914
916
918
923
924
929
932
937
938
938
938
936
934
934
931
926
927
926
926
923
922
915
909
905
900
896
891
888
882
881
880
875
876
875
874
870
866
864
859
861
861
862
863
862
861
861
859
859
854
856
852
851
854
853
857
857
856
857
857
856
854
853
853
852
853
856
858
857
857
858
860
858
856
855
854
856
854
859
859
865
864
865
864
864
862
859
859
860
862
860
865
866
867
866
866
864
864
862
864
861
864
863
865
867
865
866
865
862
860
853
858
855
854
857
860
861
860
861
861
858
856
855
854
853
854
856
857
859
857
858
857
851
855
851
850
848
849
849
852
854
854
854
854
850
848
848
847
844
848
849
852
854
854
855
853
849
847
847
844
846
844
844
852
851
853
852
848
847
846
844
842
843
845
847
850
854
853
853
852
851
847
846
843
842
844
845
849
850
850
850
847
847
846
845
843
844
842
846
849
850
850
848
854
848
848
845
845
840
842
847
847
847
850
851
852
851
848
846
846
846
848
849
850
851
855
852
849
850
848
844
843
843
846
850
850
852
851
853
850
846
844
844
846
845
846
850
853
851
853
853
852
849
847
846
845
841
844
845
849
852
855
855
855
851
853
848
845
847
845
848
851
851
853
855
852
852
849
850
846
845
848
851
853
853
855
856
858
856
856
856
858
860
867
871
877
877
880
879
877
875
876
878
884
888
892
894
895
895
893
891
889
885
880
879
879
875
875
880
877
875
874
868
864
856
851
845
841
840
839
839
840
844
844
846
845
842
842
838
835
837
837
840
843
844
846
844
844
844
841
839
839
837
838
839
841
845
847
847
851
848
845
843
848
847
851
853
859
861
864
868
873
886
907
942
988
1035
1089
1141
1195
1247
1287
1296
1270
1206
1112
996
881
785
723
709
726
761
802
827
838
840
833
826
825
829
835
844
847
850
849
851
849
844
840
841
842
842
844
846
848
851
849
850
849
845
847
845
845
844
845
846
843
850
851
847
849
849
847
844
842
841
843
846
847
852
852
851
850
848
846
845
841
845
845
847
850
852
855
857
857
856
854
854
854
852
855
856
861
864
866
871
870
871
869
869
871
872
877
882
886
887
893
895
897
899
900
903
904
905
911
915
922
927
930
933
936
934
937
936
937
939
941
944
947
947
946
948
945
939
934
928
922
920
917
914
911
908
905
901
896
889
881
876
874
871
868
869
868
868
870
868
865
861
860
857
854
855
853
855
858
861
861
862
861
859
854
856
854
853
852
852
855
858
859
859
861
856
855
853
852
855
854
856
860
861
861
860
861
861
859
853
851
850
854
857
860
862
861
861
862
860
855
853
851
850
852
854
858
862
863
861
860
856
853
856
854
851
851
851
855
851
855
856
855
854
852
852
848
847
848
848
852
855
855
856
853
853
848
847
846
847
846
846
850
851
847
850
849
847
843
844
842
843
842
844
845
850
851
850
849
849
848
844
844
844
844
843
845
848
850
849
849
849
845
844
841
836
837
841
844
846
846
846
846
844
843
840
841
842
842
842
844
843
847
845
845
844
843
840
839
841
840
841
844
846
848
848
846
843
844
842
841
841
840
843
848
845
847
848
845
845
846
843
841
840
841
844
845
846
848
849
848
849
847
844
843
841
840
844
847
848
848
849
848
848
847
845
844
843
841
844
846
847
851
850
848
848
847
843
843
843
842
845
844
850
849
848
850
847
846
842
842
841
844
845
847
851
851
850
852
847
846
844
843
843
842
845
847
849
851
852
850
848
847
846
843
847
848
850
852
859
865
868
873
873
870
868
869
868
870
874
881
888
891
894
893
893
889
886
880
878
876
880
877
879
880
880
876
875
865
858
852
852
846
844
843
845
843
842
841
837
832
830
828
828
831
829
833
837
837
833
830
832
833
833
830
828
834
836
836
836
839
839
838
837
837
833
831
832
833
839
837
844
843
845
846
849
854
856
862
878
905
946
993
1038
1090
1145
1192
1235
1244
1221
1161
1072
972
867
783
727
709
720
746
775
795
805
805
803
803
808
813
823
833
834
841
839
835
829
825
827
830
833
833
833
838
839
842
838
834
833
831
833
832
834
835
837
840
839
836
838
836
833
834
835
831
837
835
836
841
842
842
843
843
839
840
839
837
838
839
844
844
845
846
844
845
845
843
842
844
847
851
853
857
854
858
856
855
858
857
858
862
863
868
871
877
878
882
885
886
884
886
886
888
891
900
902
908
909
915
919
920
919
922
922
925
926
928
935
935
937
936
934
930
929
924
922
920
914
914
914
913
909
906
901
893
886
880
874
873
870
867
867
866
865
862
858
856
854
850
850
849
848
852
851
853
851
849
849
845
847
845
842
842
845
848
849
852
850
847
846
842
844
844
844
843
847
849
849
850
853
854
853
851
850
850
849
849
849
852
853
854
856
855
852
853
854
851
851
850
847
853
849
855
857
857
856
853
850
849
848
847
847
851
850
852
852
850
847
848
844
846
844
844
843
844
843
847
847
846
847
847
842
838
841
839
841
842
845
845
848
848
845
843
840
841
840
837
837
838
841
842
842
846
845
844
845
843
841
838
839
842
841
842
842
841
841
842
841
839
839
838
840
836
839
838
842
845
842
842
841
839
837
836
840
840
840
845
845
844
844
844
839
837
838
837
838
840
842
844
846
843
840
840
839
835
838
842
841
844
845
847
845
844
845
843
841
842
841
839
842
842
844
845
847
847
845
843
839
838
837
839
842
841
843
844
845
846
846
843
842
842
839
842
840
843
847
848
852
857
855
857
855
858
857
858
860
864
866
873
878
887
886
886
887
887
882
878
877
874
877
881
882
883
879
874
866
859
850
846
841
841
845
847
847
843
840
837
835
832
831
832
832
833
836
840
839
838
838
836
833
832
832
831
831
833
837
839
839
839
840
840
839
839
840
840
843
842
847
851
852
853
854
851
851
852
854
867
889
926
977
1024
1079
1129
1185
1235
1265
1269
1236
1169
1076
969
857
765
706
684
691
715
742
764
782
787
793
800
811
825
832
839
843
844
841
839
836
835
836
837
842
843
846
847
846
843
844
841
841
841
841
841
843
846
848
847
846
843
843
843
844
844
844
843
848
849
849
848
850
847
846
842
842
842
843
846
848
850
854
852
848
850
849
847
847
846
849
851
854
859
860
859
862
863
861
860
860
863
863
867
871
875
878
880
883
884
884
888
888
891
896
899
903
907
913
914
913
914
913
914
918
920
921
927
932
932
934
937
936
932
932
928
926
922
922
921
915
913
913
908
904
897
892
887
883
877
874
874
875
876
873
871
869
861
859
858
856
858
857
860
860
863
862
862
858
854
854
855
854
853
856
858
858
859
862
862
860
860
856
856
854
855
855
858
859
862
864
864
863
863
864
860
857
860
859
862
863
867
868
868
865
865
861
861
859
861
863
864
865
869
870
870
869
868
866
863
861
862
860
865
867
864
867
862
864
861
861
858
858
858
857
858
861
862
862
863
862
859
860
856
854
854
853
856
859
859
861
858
858
853
853
854
850
849
853
853
856
853
857
854
856
850
852
849
851
850
849
849
851
855
854
853
853
850
848
848
844
847
848
847
849
852
855
855
854
852
849
846
846
846
846
849
850
853
854
854
853
851
849
848
847
845
848
851
851
852
854
850
851
853
849
847
848
845
849
849
851
852
854
851
853
852
852
849
849
849
849
848
849
852
853
853
854
851
851
849
847
846
848
851
855
855
855
855
855
854
849
849
850
850
850
854
854
855
857
855
853
850
851
851
849
850
847
848
856
858
855
857
856
854
853
852
850
852
852
853
852
856
857
855
853
855
851
853
853
853
853
860
861
865
869
872
872
872
873
870
870
871
877
880
887
892
894
896
899
897
894
891
886
883
881
877
882
880
881
879
880
874
867
864
853
849
847
847
849
846
845
844
841
836
837
839
838
836
836
839
839
841
842
841
839
840
838
834
834
833
836
837
838
843
844
842
843
842
839
838
838
840
842
845
845
846
850
848
852
855
854
858
863
877
903
941
987
1040
1095
1148
1208
1253
1280
1269
1222
1140
1031
916
813
743
712
719
752
787
814
829
830
827
825
826
830
834
841
845
846
844
838
835
836
831
834
838
840
842
846
846
846
840
836
832
834
833
833
839
841
844
842
842
843
843
843
839
838
839
836
837
840
846
846
847
847
846
845
843
844
842
842
847
849
848
849
850
848
845
848
850
851
850
849
853
854
856
862
862
864
864
863
862
865
867
870
872
876
879
886
887
890
889
894
896
897
900
901
904
911
918
917
922
923
925
925
926
928
929
934
936
941
943
947
949
948
946
944
938
935
934
931
930
927
925
920
914
914
909
901
894
892
887
886
882
880
877
877
875
874
870
867
862
856
859
860
859
861
860
862
859
860
854
855
852
851
853
853
854
856
860
859
857
858
857
853
853
850
848
850
850
854
857
859
862
858
858
855
854
852
852
854
855
858
860
861
861
860
858
857
857
855
854
855
856
859
861
862
861
862
861
858
856
853
852
854
853
856
858
858
856
857
856
853
851
850
849
846
849
849
847
852
851
853
852
848
845
841
841
841
844
848
848
850
848
846
848
845
844
842
844
843
844
847
849
849
850
849
847
842
838
841
844
841
842
842
846
846
847
846
846
842
841
839
838
842
841
843
845
849
844
850
847
844
840
840
840
841
841
844
845
848
848
846
847
844
842
843
840
838
841
843
845
849
848
847
847
843
842
842
840
841
843
848
843
845
843
846
847
845
845
843
841
841
841
845
846
850
849
850
851
845
846
840
843
844
845
848
850
850
850
853
850
847
840
839
839
842
843
845
848
851
850
850
847
846
843
842
844
845
848
849
852
854
852
850
851
850
848
846
842
844
845
847
849
850
852
849
850
848
846
843
844
845
843
848
849
853
854
852
853
850
849
848
847
845
849
852
855
859
860
865
866
865
867
869
871
870
871
876
878
881
885
888
890
891
890
888
885
884
880
878
878
880
879
879
876
870
864
860
856
850
845
845
846
844
842
841
838
834
835
831
833
835
834
837
837
837
835
838
833
831
828
830
830
832
837
836
839
842
841
839
840
838
836
837
835
837
838
841
845
848
847
849
851
851
849
852
859
876
905
946
998
1053
1109
1172
1219
1241
1230
1171
1074
961
846
760
710
703
725
759
790
806
811
809
809
810
818
826
835
844
840
845
841
837
835
834
831
834
833
839
840
843
844
842
842
840
840
836
836
835
838
839
840
842
841
841
843
842
833
833
836
836
838
838
843
846
848
845
842
840
842
840
841
839
840
845
846
849
850
848
846
844
846
846
843
847
848
850
853
858
858
860
858
861
862
862
864
870
873
877
879
883
886
885
887
892
892
894
893
895
900
908
913
917
920
921
924
924
924
926
926
928
932
936
940
941
938
936
933
931
928
921
917
915
916
913
911
908
903
900
893
887
881
874
871
869
866
868
867
868
864
865
861
858
857
853
848
846
851
852
851
854
851
850
848
846
850
848
847
846
850
850
854
856
855
858
855
855
852
851
850
851
850
852
855
855
856
859
854
855
854
853
852
852
853
857
861
863
862
863
862
856
856
856
857
858
858
861
859
861
862
863
858
855
852
855
854
849
854
854
856
857
857
854
850
850
852
855
850
849
849
852
853
856
855
855
852
850
849
845
844
844
845
850
850
852
849
853
851
847
848
849
847
845
846
848
848
849
851
850
849
846
845
844
841
844
844
848
848
850
849
852
845
845
847
844
843
843
844
846
846
850
852
852
852
849
846
845
842
843
845
846
846
846
847
851
849
847
844
841
841
841
841
842
847
852
851
852
852
846
847
846
844
845
844
849
849
852
853
852
851
848
846
845
844
844
847
852
850
852
851
852
850
845
847
844
846
846
847
846
849
852
854
853
852
848
848
847
845
845
846
850
848
854
856
856
857
858
857
858
859
860
864
868
872
877
875
876
876
879
882
888
890
892
894
898
896
894
894
891
888
888
886
882
881
877
871
868
863
860
856
855
853
850
848
844
843
841
839
842
847
847
845
846
844
843
840
837
836
837
838
839
846
849
846
845
847
847
843
843
843
845
845
847
851
853
851
850
853
852
853
850
853
853
853
858
861
867
870
876
892
919
960
1009
1057
1117
1174
1232
1268
1276
1248
1182
1088
976
862
767
710
689
700
729
765
790
806
814
816
819
819
830
838
843
846
851
850
850
850
847
849
844
846
845
845
846
846
850
855
855
856
853
856
853
853
851
851
850
852
854
854
853
853
855
856
854
852
852
850
848
851
851
854
856
858
857
858
856
852
852
849
850
855
857
860
860
863
865
862
860
861
861
858
859
866
868
872
875
876
880
880
878
878
880
880
884
885
890
894
900
901
905
907
904
904
907
911
913
916
919
924
929
930
932
933
934
932
934
934
934
940
943
943
947
948
947
942
941
937
933
930
926
923
922
920
917
917
911
907
899
897
893
887
886
882
880
878
878
877
877
875
873
869
867
867
866
866
869
868
871
871
867
868
865
864
863
861
863
862
865
867
869
868
868
870
867
867
865
864
862
863
867
869
870
871
873
873
870
868
869
866
867
869
871
873
869
871
875
872
871
871
867
870
869
869
869
875
875
876
877
874
872
868
868
868
869
866
865
872
870
873
872
872
869
866
864
862
862
862
863
866
867
868
869
866
866
863
861
854
856
861
861
862
864
864
862
859
857
856
854
857
853
855
853
859
858
862
862
860
859
855
855
852
852
853
857
858
859
858
859
860
859
857
856
854
851
856
855
859
859
859
859
859
856
855
850
853
853
850
854
855
861
859
856
858
857
856
854
854
849
851
853
856
859
858
860
858
858
855
851
852
852
854
855
858
860
859
859
860
857
852
853
853
854
853
854
855
854
854
860
857
856
855
851
850
852
852
856
857
858
859
859
854
853
854
854
851
852
852
853
855
860
860
859
861
856
853
853
851
853
853
854
856
859
863
861
859
857
858
856
856
855
855
856
856
860
862
860
861
859
859
855
853
854
852
856
858
861
858
862
861
858
858
856
854
854
856
858
864
865
870
875
877
880
879
879
876
875
877
884
889
896
898
901
898
896
894
888
888
886
885
885
888
887
888
883
880
874
867
865
857
853
853
851
852
850
852
848
852
847
847
844
844
844
844
845
846
848
850
851
851
848
846
843
844
843
846
846
850
850
851
850
851
850
849
850
849
849
849
855
857
860
863
867
870
868
869
871
882
901
934
976
1028
1079
1136
1188
1243
1277
1289
1259
1194
1098
991
876
789
737
725
746
780
813
833
844
842
838
835
836
842
849
857
860
860
859
855
853
849
849
847
852
855
857
861
859
859
857
856
855
852
854
853
855
856
858
860
859
856
857
857
854
853
852
853
856
857
858
860
859
860
858
855
855
852
855
854
858
860
861
863
863
861
861
864
861
862
862
864
866
870
872
869
876
876
876
875
875
875
877
881
883
887
890
894
899
901
899
903
904
905
909
911
916
921
924
930
936
937
941
941
939
943
942
944
948
953
955
956
954
955
953
946
944
941
937
933
929
927
925
921
916
910
904
898
894
888
886
883
878
880
878
880
879
876
874
871
867
867
863
863
864
868
869
869
871
867
864
865
861
860
861
861
861
863
866
865
866
867
864
862
860
862
859
861
863
867
867
868
871
870
868
865
864
863
861
862
867
868
868
869
869
871
870
868
864
863
864
859
863
866
869
873
872
873
871
866
865
858
858
859
859
864
865
866
864
866
862
858
859
856
859
858
857
859
861
863
865
863
862
860
856
856
855
853
855
854
857
859
857
858
859
856
851
851
850
848
849
849
850
853
855
856
856
851
849
848
848
847
850
850
849
850
850
853
851
850
847
845
847
845
850
848
852
853
854
852
851
848
843
847
844
845
846
849
851
852
852
849
850
849
846
845
844
845
847
850
849
851
854
852
851
849
849
847
846
847
846
849
851
853
855
854
848
847
845
846
845
844
849
847
852
853
855
851
852
851
848
845
848
847
849
848
852
855
854
854
852
848
847
847
845
845
850
851
851
852
855
853
852
849
849
848
846
848
847
851
852
854
854
855
853
847
848
847
847
850
851
849
853
854
853
852
852
851
847
846
845
847
849
854
851
855
857
855
854
850
849
849
848
849
851
853
856
862
860
864
865
869
868
869
871
869
871
877
881
885
889
891
895
891
889
890
887
885
882
878
881
885
883
885
881
875
875
868
862
858
854
853
851
851
851
849
848
842
841
838
834
835
838
841
841
842
843
842
839
838
836
837
836
838
836
842
840
841
846
847
845
845
842
843
841
844
844
847
851
852
852
855
855
856
856
854
856
865
870
891
921
963
1010
1052
1099
1145
1191
1233
1248
1228
1176
1098
997
899
808
750
718
716
737
765
791
801
811
814
816
822
828
838
842
845
849
846
843
844
842
842
843
849
852
851
848
850
849
845
844
842
841
848
852
854
853
853
853
846
847
844
845
845
849
852
852
851
852
854
854
853
853
851
848
846
849
854
852
855
858
856
857
851
850
847
849
850
851
858
862
864
866
864
865
864
863
865
863
867
865
869
874
878
880
884
885
882
884
883
889
891
893
898
902
907
911
914
916
917
918
916
917
920
923
927
933
938
939
939
940
941
940
941
933
935
935
936
938
938
935
928
923
917
914
909
905
902
897
898
897
896
893
886
882
877
874
872
869
868
864
867
867
867
867
864
863
862
857
858
857
854
855
858
859
862
860
864
861
859
858
854
856
854
856
859
861
862
862
861
858
862
858
859
860
856
858
860
862
864
867
867
868
863
864
861
859
858
866
867
868
871
870
867
867
863
863
863
859
860
858
862
862
867
864
865
866
862
859
856
857
856
855
860
859
863
861
860
860
856
854
856
855
852
853
856
854
857
857
858
857
856
855
849
848
851
851
853
853
858
854
857
853
852
850
850
849
850
848
850
849
852
852
852
851
849
848
844
848
846
849
848
850
852
852
851
852
851
849
847
845
843
844
848
850
856
854
849
850
848
845
840
844
845
846
851
853
852
850
854
853
852
850
851
846
849
851
852
852
855
853
855
855
848
852
849
847
847
850
853
853
853
854
852
852
850
849
852
850
848
851
852
852
854
857
855
854
850
848
848
847
847
850
849
853
853
855
856
854
851
848
852
851
848
851
851
854
856
858
854
856
851
848
850
848
848
852
851
857
858
861
857
857
855
852
853
854
855
859
862
867
871
874
876
876
876
873
870
869
874
880
888
894
902
903
901
896
894
890
885
883
882
885
886
885
886
883
878
870
861
858
854
848
847
847
846
850
851
851
851
849
848
845
840
842
841
845
842
843
850
849
849
849
846
843
842
842
843
845
846
849
851
852
853
852
851
851
849
850
850
851
856
858
863
864
863
867
868
868
880
905
943
988
1040
1093
1154
1210
1256
1272
1255
1200
1117
1008
895
802
736
710
715
743
773
797
813
822
824
826
836
843
849
856
859
860
856
851
852
850
849
849
849
851
853
856
855
854
854
855
855
854
854
851
851
853
855
861
863
860
859
860
859
858
857
855
856
858
860
860
861
862
864
866
864
862
863
858
859
857
861
865
868
872
873
871
871
870
870
867
870
872
875
877
880
885
884
885
886
883
884
887
888
892
897
901
902
905
906
911
913
914
913
919
918
922
923
930
934
934
937
938
938
939
938
940
941
945
948
949
948
950
945
946
940
941
933
930
926
923
920
916
917
915
910
907
901
896
890
885
885
883
883
883
881
882
880
879
876
871
870
872
869
866
868
874
875
874
872
873
873
871
868
865
866
865
868
872
872
871
871
873
871
871
871
872
870
872
870
872
874
877
875
874
877
875
873
871
868
869
872
877
878
876
879
879
874
873
873
871
871
872
871
873
875
876
876
875
874
872
874
872
870
871
873
874
874
874
874
873
872
868
867
869
864
866
866
869
870
871
869
869
867
864
861
861
863
862
863
866
868
868
867
864
865
862
859
858
855
856
855
859
863
864
860
860
861
859
859
856
857
858
861
861
864
866
863
865
859
860
854
857
857
857
859
860
860
859
859
858
855
853
855
855
853
856
857
861
861
862
862
858
859
858
858
857
857
852
857
858
862
862
864
862
861
856
855
857
855
857
860
860
862
861
859
858
857
855
855
858
856
856
859
858
858
860
862
861
859
857
854
856
856
858
860
862
863
864
865
862
864
860
861
860
859
860
862
862
863
865
864
864
861
861
862
859
856
858
859
862
867
865
865
866
865
862
857
858
857
858
860
862
868
867
870
865
867
863
862
861
860
861
863
865
867
867
869
870
865
865
865
862
861
863
862
864
869
870
872
867
868
868
867
869
871
874
881
885
888
893
892
892
890
889
892
895
901
904
906
909
906
908
905
901
898
896
895
889
889
887
890
888
885
883
878
872
868
864
860
858
853
855
858
855
853
858
859
857
856
855
856
854
853
855
856
855
859
859
859
856
856
854
852
853
853
852
854
858
856
863
861
864
865
862
863
861
861
865
869
871
874
881
886
900
923
959
1004
1047
1095
1145
1197
1245
1277
1282
1255
1192
1110
1007
902
812
752
728
742
774
811
836
849
851
845
839
840
843
847
853
858
862
864
864
863
861
860
858
859
854
859
855
857
863
864
865
865
865
864
862
859
857
856
857
860
861
862
862
862
861
862
860
858
859
858
858
861
862
866
867
864
866
865
862
863
862
863
864
868
868
869
871
870
871
870
867
866
869
868
868
871
876
878
882
882
886
886
883
883
884
885
888
889
895
902
902
906
909
912
911
911
912
913
916
923
927
931
935
933
937
938
939
940
942
942
946
949
954
956
958
958
957
956
954
952
946
943
939
938
936
932
928
923
917
914
908
904
897
891
890
887
886
887
889
885
883
880
880
878
876
874
873
874
876
877
875
874
876
874
870
868
868
868
866
869
871
872
873
873
875
874
869
868
868
869
865
870
872
874
877
876
879
875
875
874
872
869
870
874
874
874
879
879
878
873
876
874
872
872
871
873
875
876
879
879
877
877
876
872
869
869
870
870
873
875
875
875
874
871
871
869
868
865
864
865
867
869
871
869
871
870
867
864
863
862
861
864
863
862
867
869
863
864
864
862
859
860
860
861
864
865
865
869
867
864
861
857
860
858
859
863
862
860
866
865
867
865
862
860
861
860
860
861
859
863
866
863
862
862
861
859
858
857
857
858
857
857
864
864
863
859
859
856
856
855
855
859
858
862
864
864
865
862
861
858
855
860
858
857
862
862
861
862
861
859
858
856
855
857
856
856
858
860
860
861
862
859
859
856
854
853
856
855
859
860
863
866
864
862
858
856
856
854
857
855
860
862
863
862
862
861
858
855
854
858
857
859
862
862
863
862
863
864
862
858
861
858
856
857
860
860
865
864
869
866
863
863
861
859
860
863
864
867
869
869
867
868
869
870
871
871
874
878
884
887
890
887
888
888
887
888
893
899
903
905
907
905
904
901
896
892
892
893
892
891
889
888
886
879
874
869
865
860
858
856
855
852
850
849
857
858
859
858
858
856
850
852
853
855
856
856
858
855
860
861
860
858
860
855
856
856
857
858
861
860
865
862
865
866
862
864
862
863
864
869
872
874
882
891
912
939
976
1019
1065
1108
1166
1216
1245
1251
1218
1151
1064
962
867
788
742
729
736
768
794
815
827
833
837
841
846
854
858
861
863
865
863
859
863
864
865
863
861
859
860
859
858
860
862
864
867
868
866
866
865
863
863
862
862
862
864
867
867
867
866
862
864
863
862
864
863
863
866
867
868
869
870
869
866
864
864
865
865
866
868
871
872
875
874
875
876
877
876
877
876
876
881
886
892
892
896
895
897
896
898
900
905
906
912
914
919
922
922
922
923
925
925
927
929
932
937
940
945
946
946
948
947
946
948
944
943
945
946
943
944
941
936
931
928
923
920
915
911
910
906
906
903
897
891
888
883
880
879
877
875
876
875
876
880
874
878
874
869
867
867
868
865
869
869
871
875
874
874
872
870
868
866
865
863
867
868
870
871
873
875
873
874
868
869
868
868
875
874
875
880
877
880
878
878
875
875
874
875
876
878
878
881
882
881
880
879
878
876
876
876
878
878
880
879
881
881
881
878
875
874
872
871
874
875
876
879
875
877
875
872
868
867
867
869
868
869
869
869
871
871
870
870
868
867
864
861
860
861
868
871
868
870
869
866
864
863
863
863
863
866
866
868
873
872
873
871
868
863
859
859
861
865
867
871
873
872
869
866
863
866
863
863
862
865
865
869
869
870
871
868
869
867
863
865
866
866
868
869
871
870
868
867
868
866
864
866
866
869
868
871
870
872
871
868
865
864
865
868
866
869
872
873
873
874
872
871
870
869
869
866
870
870
876
875
876
880
879
880
884
883
887
887
888
893
894
898
898
901
906
905
907
908
905
901
901
899
900
904
898
898
903
901
897
894
888
881
875
871
871
872
870
874
870
866
863
861
859
859
860
863
863
864
867
865
865
862
862
862
858
858
858
862
866
868
868
868
865
864
865
864
866
866
867
868
871
875
875
880
876
875
876
877
876
883
889
914
945
985
1032
1079
1129
1180
1228
1263
1270
1242
1180
1093
992
891
804
749
725
736
757
786
809
823
829
831
838
845
855
862
869
873
873
871
865
864
864
864
865
869
871
871
873
872
868
869
867
867
868
866
869
871
874
874
875
873
870
865
867
869
871
869
872
875
874
873
876
874
870
870
870
869
873
873
875
877
879
877
878
874
872
870
872
873
876
879
882
882
887
883
884
887
884
882
887
888
889
892
895
901
903
904
903
903
903
905
907
909
913
915
920
925
927
930
934
937
938
939
940
940
942
946
947
953
957
958
959
960
955
956
955
956
955
956
955
959
954
951
950
944
938
933
927
925
922
921
920
914
912
911
904
901
896
889
890
887
886
890
883
885
889
890
886
885
879
879
878
876
878
875
880
884
879
880
876
875
877
877
876
876
876
880
881
880
883
883
884
881
880
877
875
874
876
877
882
883
884
886
887
884
883
881
880
883
883
886
887
889
890
889
890
888
886
885
883
881
883
887
889
890
891
890
889
886
885
883
883
879
879
882
884
885
886
884
886
882
879
879
877
877
875
878
880
880
883
881
883
880
878
878
877
874
874
877
879
876
877
876
878
875
874
873
872
871
870
874
874
873
876
875
874
872
869
870
869
869
868
870
872
874
874
875
874
873
869
868
866
863
865
868
869
871
872
873
871
867
867
861
862
861
866
867
870
872
872
871
871
868
870
868
864
867
866
867
870
869
870
870
873
871
868
867
865
866
866
869
869
872
873
873
874
871
868
867
863
865
867
869
872
872
874
872
873
873
869
867
864
864
864
867
869
872
872
873
870
872
867
869
866
863
864
865
867
872
873
871
872
870
867
866
866
866
866
870
872
872
874
875
872
870
872
872
873
871
872
877
884
885
892
894
892
891
889
889
887
893
897
905
910
912
912
910
904
901
897
896
892
892
890
892
891
885
886
888
881
875
871
863
859
858
858
859
860
862
863
861
862
860
860
858
856
854
855
856
859
860
861
860
859
860
856
856
856
856
856
858
862
861
863
866
866
864
864
861
862
861
863
865
868
870
877
880
893
907
936
977
1021
1068
1119
1174
1222
1260
1272
1246
1184
1094
989
881
793
744
734
753
791
827
849
855
857
852
848
852
852
856
860
863
866
865
866
863
861
862
862
861
860
859
859
858
863
866
868
869
864
863
865
861
862
858
861
860
862
862
862
864
866
867
866
863
861
861
862
862
865
868
866
868
872
870
868
861
863
865
867
869
869
870
875
873
875
875
875
872
871
876
877
880
884
887
891
893
894
894
896
896
896
899
899
907
912
918
922
924
927
927
928
925
930
931
935
937
941
946
951
954
955
957
955
954
953
952
953
952
953
951
953
945
943
937
932
925
925
918
913
909
908
906
903
902
899
892
892
885
881
880
878
878
879
879
879
880
878
878
872
870
866
867
866
867
870
872
875
872
874
873
868
869
865
864
869
869
872
874
877
877
877
875
872
872
868
869
868
870
872
875
878
875
876
874
874
871
869
869
870
873
877
875
879
879
878
876
875
871
871
871
871
871
871
874
878
877
877
875
872
869
867
867
867
866
869
871
871
873
872
867
868
866
862
862
862
862
864
865
867
866
868
868
862
861
861
859
859
859
861
864
864
866
866
861
862
857
858
856
859
861
859
859
862
863
861
861
856
853
853
853
853
851
856
857
858
863
863
859
859
858
855
856
856
854
855
860
859
862
860
860
857
854
854
852
853
856
859
860
858
860
859
857
855
854
851
852
851
854
853
857
859
858
860
857
853
855
853
851
854
856
859
855
860
859
859
856
854
852
852
852
853
851
855
858
859
856
854
856
855
855
853
849
852
855
856
855
859
860
859
858
854
853
852
852
853
856
856
859
860
861
860
861
856
854
853
851
849
855
857
862
862
861
862
866
867
870
871
872
873
873
876
878
881
883
888
894
887
886
883
881
876
875
875
877
879
877
880
875
870
866
861
856
853
851
851
850
852
850
850
850
846
845
844
841
841
841
844
848
849
850
852
851
846
844
845
844
843
847
849
851
852
850
850
851
849
852
845
849
849
852
854
859
856
861
862
867
865
875
892
917
959
1003
1052
1103
1158
1204
1230
1220
1175
1095
1001
894
805
744
719
723
750
779
803
812
818
818
822
823
829
838
847
849
854
856
855
852
847
847
849
845
849
849
853
853
856
855
858
856
852
851
852
851
849
850
851
854
853
856
858
859
857
852
852
851
848
853
856
857
857
857
855
855
853
856
853
851
848
856
854
855
860
861
862
861
861
859
857
857
861
859
863
866
869
872
875
874
874
873
874
874
874
879
882
882
891
893
894
897
900
898
897
899
901
902
909
915
919
924
924
925
927
928
924
927
927
930
935
937
939
940
939
938
935
932
928
923
921
918
917
916
914
910
906
900
898
889
885
881
876
875
872
872
874
872
870
867
867
865
861
858
856
857
859
860
863
865
863
861
859
856
853
852
852
852
854
855
858
857
855
856
860
858
857
853
853
855
856
860
860
862
862
859
863
860
859
859
858
861
861
863
863
865
867
867
868
862
862
863
862
863
865
863
865
868
868
869
867
864
861
857
857
857
856
862
865
859
859
860
857
854
850
854
854
856
852
858
860
860
861
860
856
854
856
853
853
854
855
857
856
855
855
855
852
851
847
850
848
850
853
856
858
858
857
858
855
850
854
852
849
849
851
854
856
857
858
857
858
850
852
849
849
852
851
856
857
858
857
855
857
853
852
850
850
849
848
851
851
856
857
857
854
855
852
852
851
853
853
854
857
857
857
859
854
854
854
853
855
855
856
858
859
859
860
857
858
855
854
855
853
855
856
859
862
864
863
866
868
867
870
872
872
874
874
879
882
887
891
895
895
895
894
890
882
880
882
880
882
884
885
887
884
881
876
869
864
860
858
854
855
860
858
856
851
849
846
845
845
846
846
843
849
851
851
850
848
845
843
846
844
847
849
851
853
857
857
857
853
851
851
850
849
854
856
858
862
866
866
866
866
864
867
883
906
944
992
1042
1096
1152
1207
1247
1260
1233
1170
1075
960
847
759
712
701
720
752
784
804
818
821
825
831
838
847
855
857
859
859
858
856
854
851
851
851
852
857
857
858
861
862
862
862
856
854
852
853
855
856
859
859
861
859
860
862
857
853
855
854
852
856
860
861
859
859
856
857
854
855
851
853
858
860
862
862
865
866
865
865
865
864
862
866
865
869
872
875
875
876
880
881
881
879
879
881
885
887
892
895
900
901
906
906
908
908
911
913
917
919
923
925
930
927
930
932
931
931
932
931
931
933
934
939
938
934
933
931
924
919
915
910
908
905
903
902
899
896
892
890
884
879
875
875
874
872
872
875
875
874
873
868
865
863
863
865
862
865
866
866
872
868
870
868
868
866
864
863
864
865
867
869
868
870
869
867
864
865
864
863
868
868
869
871
876
876
875
872
872
867
865
869
872
872
871
875
876
878
875
875
872
871
870
869
869
871
871
873
874
874
870
873
866
867
866
863
862
865
866
867
869
869
869
867
866
864
862
858
860
864
863
865
867
868
867
864
861
859
856
857
859
859
860
862
861
859
861
858
858
857
856
852
854
852
857
857
859
857
859
860
856
855
853
853
852
853
857
859
858
859
857
859
855
854
853
851
852
853
854
857
859
858
858
855
851
851
851
853
852
852
854
857
859
858
858
858
854
852
853
852
853
850
852
854
858
856
859
856
856
853
851
851
851
851
854
855
856
856
857
857
853
853
852
849
853
853
854
854
860
859
860
855
854
855
852
853
853
855
856
860
860
859
861
861
861
859
859
864
866
870
875
877
883
884
885
883
883
880
882
886
885
887
885
883
880
879
881
879
874
875
875
873
874
870
873
870
872
868
865
857
855
849
849
847
846
848
847
848
848
849
849
849
846
845
844
843
844
845
846
848
849
849
850
851
847
846
846
846
848
847
852
853
854
857
858
856
857
850
852
855
856
861
865
866
876
886
904
930
967
1010
1053
1100
1150
1196
1243
1261
1250
1206
1128
1030
922
825
756
729
738
766
807
830
849
851
849
845
844
845
849
851
856
858
858
857
858
858
859
858
858
858
857
854
853
854
859
860
864
864
861
859
855
855
855
854
854
855
859
856
859
860
860
859
856
856
856
856
854
860
859
862
866
865
863
864
865
862
861
856
857
862
866
864
870
874
873
872
873
872
875
872
875
877
881
883
888
892
892
894
891
891
892
895
896
903
906
910
914
917
917
917
920
924
925
928
931
936
937
940
945
948
951
949
952
948
949
945
948
945
946
945
944
941
938
933
927
921
913
909
906
903
898
897
893
894
890
888
885
880
879
872
873
874
874
875
874
876
874
869
870
868
865
864
866
866
864
866
867
869
865
864
863
864
861
862
864
862
863
866
868
871
867
868
866
864
863
864
863
863
867
867
870
870
872
869
867
866
864
864
863
864
868
870
873
872
871
870
868
868
864
861
861
862
864
865
869
867
868
866
863
861
860
858
860
860
862
863
863
865
863
863
861
861
856
856
855
859
862
859
862
861
862
861
858
858
856
856
853
857
857
859
859
856
858
856
855
852
854
854
852
856
856
856
860
861
860
860
859
854
853
854
848
851
851
857
858
859
858
855
852
852
854
851
851
852
855
857
860
857
857
860
857
855
854
852
849
851
853
853
858
855
855
852
851
851
851
852
854
852
853
854
857
856
857
858
854
855
851
850
849
851
855
858
858
859
858
859
857
853
855
854
853
854
856
856
861
860
860
858
858
853
853
853
854
852
856
859
857
858
860
858
856
855
856
854
854
857
859
858
860
860
857
859
857
857
858
855
857
861
858
862
871
876
877
877
878
877
877
874
874
876
880
885
891
893
889
886
881
875
875
874
872
871
872
876
876
874
873
867
863
860
857
853
848
845
844
848
845
845
846
844
841
840
836
834
836
834
838
840
845
844
842
844
844
837
839
841
840
840
846
845
848
851
848
848
848
844
844
841
846
849
855
855
862
865
868
875
894
924
961
1006
1051
1099
1152
1198
1223
1219
1172
1097
997
894
805
746
719
729
760
791
814
825
829
834
835
835
839
839
844
846
848
847
847
847
847
848
846
842
846
844
843
845
847
850
850
854
851
847
848
845
846
844
846
848
848
852
852
850
850
850
849
848
850
845
843
848
850
852
857
854
856
853
852
850
847
850
854
854
857
857
863
861
863
865
864
864
865
867
866
865
870
876
876
880
884
884
879
882
886
888
890
893
897
899
903
907
910
913
913
913
915
918
919
923
928
930
933
939
940
937
933
934
931
933
929
927
930
929
927
925
920
917
909
904
897
895
891
886
885
883
882
878
872
871
869
866
867
865
862
860
860
860
861
863
860
862
860
857
857
856
852
853
857
855
859
860
860
856
856
855
853
854
852
856
857
860
862
863
865
864
862
859
859
857
856
860
861
862
864
869
867
868
865
862
862
860
859
859
862
866
868
868
868
868
864
861
861
859
859
859
859
863
864
864
863
861
860
858
855
851
849
854
854
855
858
857
857
856
856
855
854
851
849
849
848
851
852
855
856
852
852
850
851
846
848
848
851
855
856
853
853
854
854
849
850
850
846
846
848
852
854
856
853
855
853
849
849
849
850
851
851
853
854
852
850
853
850
849
847
844
845
846
849
849
850
854
853
851
852
849
845
844
844
845
848
848
849
848
853
851
853
852
846
846
850
850
850
851
853
855
857
859
859
860
861
865
865
867
870
875
877
878
884
886
886
886
882
879
879
875
872
872
876
873
876
876
878
873
869
861
853
853
851
851
851
852
846
846
843
840
839
837
837
837
836
840
842
844
843
843
842
841
839
838
841
839
839
846
846
849
847
847
847
845
843
842
842
845
846
851
852
857
859
858
858
857
853
855
857
867
886
916
960
1008
1058
1111
1162
1213
1242
1239
1198
1122
1024
913
817
748
714
711
727
754
776
795
804
814
824
833
840
848
854
853
853
849
848
844
844
846
844
846
854
855
854
856
854
851
851
848
848
850
850
854
857
858
855
858
855
851
851
851
851
849
851
852
855
859
858
856
852
851
846
848
848
853
852
856
857
857
858
858
855
859
856
857
859
860
861
864
868
870
870
869
869
869
872
870
874
878
879
880
886
888
891
893
892
895
894
896
898
901
902
906
910
915
917
915
918
918
919
922
925
926
928
930
934
935
935
935
930
928
926
923
917
916
915
913
912
911
907
905
898
892
887
883
878
878
878
878
878
877
872
872
871
868
864
862
860
859
862
863
864
864
865
866
861
862
860
858
859
858
860
864
865
867
865
865
865
863
862
860
863
861
862
866
865
867
869
867
865
862
863
861
866
866
865
871
871
875
874
871
870
868
868
864
865
866
870
870
870
871
874
871
872
868
867
863
864
864
867
866
869
868
868
865
868
864
862
859
862
860
864
865
866
867
865
864
863
864
861
860
859
861
860
862
865
865
865
863
860
859
857
856
857
856
856
857
861
862
862
862
859
856
855
854
852
854
855
858
857
856
857
859
856
857
855
856
854
853
855
857
858
859
861
859
857
854
852
849
849
850
853
856
858
862
858
859
857
854
853
851
850
851
857
857
855
857
859
860
856
857
854
853
854
852
855
859
860
863
863
861
865
863
868
867
870
874
874
879
880
881
882
882
883
885
882
882
880
878
877
880
879
880
880
878
878
875
872
868
866
865
864
863
861
859
854
852
849
850
845
842
835
837
839
845
846
846
845
845
844
842
842
839
840
839
840
839
844
845
848
848
850
843
843
844
843
844
844
847
849
852
853
854
852
852
850
853
854
854
859
863
867
878
892
921
957
999
1041
1088
1136
1186
1232
1261
1259
1228
1161
1072
966
866
782
734
722
739
771
804
828
839
840
839
833
836
838
842
846
854
854
856
856
855
855
853
854
849
851
852
852
853
853
854
856
857
857
858
856
854
852
848
852
853
850
855
856
854
853
854
856
853
852
852
852
854
853
853
854
858
857
859
856
855
853
850
849
849
854
856
860
863
863
865
864
862
861
861
864
865
869
872
873
878
881
881
883
882
884
885
888
889
896
900
905
908
913
912
914
914
914
916
919
925
929
933
936
941
944
946
942
944
946
945
945
943
945
944
946
940
940
936
929
923
918
911
906
899
896
894
897
892
892
890
886
878
875
872
870
868
868
871
875
876
876
877
873
871
869
866
864
864
866
862
864
866
868
868
864
865
864
862
863
863
862
867
867
868
871
872
870
868
866
865
866
864
864
864
871
871
873
871
871
869
868
864
866
863
867
870
871
873
875
874
875
871
867
866
867
866
867
864
867
866
871
869
868
865
861
859
860
860
860
860
865
862
865
862
858
858
856
856
856
853
858
857
859
860
860
860
858
854
854
853
851
851
852
854
859
861
861
858
859
853
850
849
846
850
851
853
853
855
856
856
856
852
851
847
846
848
849
851
853
857
854
858
854
854
851
850
850
849
851
854
853
853
856
854
849
851
848
849
848
849
847
851
852
857
857
856
856
852
853
851
851
850
850
853
853
856
857
853
857
854
852
852
851
850
850
850
854
856
856
856
856
852
850
850
849
847
852
854
855
858
857
857
855
856
855
852
852
852
854
856
858
860
859
861
859
856
857
855
855
856
862
866
873
878
878
883
881
882
878
880
881
883
884
890
889
889
886
884
880
876
876
873
874
870
874
874
875
874
871
869
864
859
855
851
848
848
846
848
846
849
850
850
848
848
844
844
844
844
843
845
848
852
851
849
848
845
844
841
840
838
842
844
847
850
853
852
851
850
850
848
850
851
852
855
860
863
864
866
872
881
896
927
966
1007
1052
1098
1148
1197
1229
1238
1213
1155
1073
972
872
791
744
730
745
778
804
826
835
833
830
826
828
832
838
849
856
859
861
857
854
852
850
850
851
849
851
852
854
854
856
858
857
855
854
855
851
851
851
852
852
857
859
857
857
856
853
852
851
851
851
855
856
858
858
859
857
852
852
854
852
852
855
857
863
864
865
865
865
865
863
862
860
866
867
870
874
875
875
877
878
881
882
882
884
887
890
894
897
903
904
907
910
911
910
910
911
915
921
924
931
934
935
939
939
941
942
942
942
942
941
942
944
947
950
945
942
938
931
924
917
915
911
910
907
907
905
900
895
890
885
883
879
878
876
875
874
872
874
875
872
871
870
865
864
862
865
864
867
867
869
866
865
864
863
856
856
860
861
863
864
866
868
867
870
868
866
863
863
864
862
867
867
869
871
870
869
867
863
863
861
860
864
865
867
868
867
867
867
864
865
863
861
860
862
865
869
869
869
869
865
864
861
858
858
858
860
859
863
865
864
865
865
860
861
856
854
856
858
859
859
862
860
862
858
857
856
853
853
853
850
855
856
854
859
858
859
856
851
853
848
849
851
852
855
859
860
859
857
855
854
849
852
852
854
854
854
855
859
857
855
851
852
851
848
845
848
853
854
857
858
858
858
856
854
853
852
854
851
853
856
857
857
860
858
858
854
853
853
851
853
858
859
859
856
858
854
855
854
853
852
853
852
854
857
855
859
861
863
861
861
861
863
864
868
872
876
875
881
880
879
879
880
884
886
888
891
890
888
888
887
883
884
881
879
878
877
876
874
874
873
865
865
860
856
853
854
848
848
846
846
846
848
844
850
849
850
849
849
845
843
845
846
846
848
849
851
853
851
849
846
846
847
848
849
851
850
851
856
856
855
854
851
851
855
858
859
861
865
871
885
910
946
989
1033
1081
1133
1184
1226
1244
1226
1168
1086
983
881
794
736
715
719
740
766
795
809
815
823
826
832
837
846
851
855
854
854
853
851
852
852
855
856
856
856
853
852
851
850
854
856
856
857
857
859
855
854
854
854
855
854
856
857
857
859
858
859
857
859
855
854
855
855
854
857
860
861
860
862
861
861
857
856
857
857
857
861
864
865
868
872
870
867
861
864
867
865
871
875
873
876
879
881
884
882
882
884
887
889
894
899
902
907
909
915
910
911
911
912
913
915
920
925
930
933
935
936
938
933
933
934
934
933
935
936
936
936
933
930
922
917
909
910
906
900
899
900
896
893
888
888
883
879
873
874
872
870
869
871
869
874
872
871
870
869
869
866
864
865
865
868
867
869
868
869
867
864
862
862
863
864
867
868
869
865
866
873
872
871
870
869
868
867
872
872
874
877
878
878
876
870
870
869
869
869
868
872
870
875
876
879
875
873
873
872
870
869
871
872
874
879
876
872
873
871
865
867
865
869
870
868
870
871
871
873
871
867
867
864
862
863
864
865
865
865
868
868
869
866
863
864
864
862
864
866
866
868
865
863
864
859
859
856
862
861
862
865
864
869
868
867
866
866
865
861
862
864
864
865
866
866
869
865
866
865
860
862
857
861
863
866
868
869
869
864
866
864
865
864
859
860
863
866
867
870
869
870
868
867
866
867
866
868
872
877
878
885
886
890
888
888
884
884
885
890
892
897
898
900
896
896
893
889
886
883
883
882
884
884
887
886
882
876
871
866
860
858
855
853
853
853
852
857
852
856
852
852
850
850
849
851
849
850
853
854
856
854
852
849
847
848
847
848
851
853
854
856
857
858
862
859
858
859
857
861
861
866
868
873
875
880
889
905
937
979
1025
1077
1137
1194
1242
1264
1255
1211
1135
1038
928
832
755
726
731
760
796
823
840
847
845
844
842
846
851
855
861
866
865
864
864
862
859
859
858
858
858
858
858
860
863
865
867
865
863
861
862
860
861
860
859
864
866
861
864
863
865
862
862
858
859
859
861
861
865
867
864
865
867
864
862
860
860
861
864
866
867
871
871
871
869
872
868
869
872
871
874
879
880
882
886
888
888
887
890
891
892
893
900
904
907
915
917
919
921
920
924
927
927
926
933
937
942
946
947
949
946
948
947
946
946
947
947
944
946
945
938
939
932
925
919
914
909
903
899
896
896
893
889
886
880
877
874
870
867
866
866
866
868
868
870
866
868
865
865
860
860
859
859
860
861
863
863
863
859
858
857
855
853
856
857
862
862
863
864
862
862
860
856
855
855
857
858
860
862
861
864
866
864
864
862
858
858
858
861
863
864
867
863
865
862
860
860
859
858
858
855
860
862
862
865
863
860
854
856
854
856
854
857
857
856
859
857
857
858
853
855
853
851
849
849
852
853
853
854
855
854
851
849
848
849
848
849
850
851
853
852
854
854
853
851
849
848
846
849
847
850
852
852
851
850
848
847
849
846
845
845
846
850
850
852
851
849
848
847
847
846
845
844
844
848
848
848
849
848
846
847
845
845
842
839
840
846
848
847
849
849
848
845
844
844
846
847
847
850
851
852
852
854
849
847
848
847
846
849
851
853
854
853
853
852
846
847
848
846
845
846
849
850
852
851
848
851
846
847
846
843
840
844
848
850
848
849
851
848
847
845
840
842
843
841
847
848
847
850
851
851
849
847
846
844
843
843
845
844
844
850
851
852
849
847
847
846
847
851
855
860
864
869
869
871
871
873
870
871
875
876
881
881
881
880
877
872
869
866
863
861
862
863
863
865
865
863
861
854
851
845
841
838
832
834
834
838
838
837
840
836
837
834
833
833
832
831
833
835
838
838
837
838
837
835
834
833
832
834
835
839
841
840
839
842
841
840
840
842
842
844
847
849
854
861
875
896
931
971
1012
1060
1110
1165
1209
1236
1225
1181
1104
1005
895
800
738
714
723
754
790
816
833
833
831
830
827
829
834
837
839
841
843
843
844
844
841
843
842
841
841
841
839
841
837
840
844
846
845
846
844
841
842
839
837
840
838
843
845
847
847
848
845
842
839
838
841
840
841
843
846
847
848
850
846
844
842
845
845
846
847
848
849
854
855
854
854
851
851
852
852
856
858
859
863
868
869
870
871
874
874
875
876
880
883
888
893
893
898
901
901
905
905
907
908
911
917
921
926
931
929
934
935
933
934
933
928
928
930
930
927
929
923
916
912
904
898
895
891
889
883
879
876
877
873
868
863
862
858
853
850
852
851
853
850
854
853
850
847
841
841
843
843
843
843
846
850
848
845
845
843
842
840
838
838
839
838
840
845
846
844
845
843
841
842
840
840
841
840
840
842
849
847
846
843
844
846
843
841
839
841
842
846
846
848
846
843
842
838
836
837
840
838
843
844
846
844
843
838
837
835
836
837
836
839
839
839
839
839
837
835
832
833
831
831
829
831
832
833
837
836
835
834
833
831
827
828
825
827
830
831
833
834
834
832
829
828
827
826
827
828
831
831
834
830
830
829
825
825
820
819
824
828
829
830
833
832
831
828
825
821
822
824
823
826
827
828
829
826
829
826
821
824
819
821
824
823
827
828
827
829
826
826
824
823
823
824
822
825
826
826
827
826
825
823
824
822
824
823
821
825
826
827
827
827
829
827
826
826
819
823
823
826
827
829
830
830
832
829
830
828
826
824
827
827
831
833
834
833
834
833
835
833
835
840
844
847
851
856
855
856
858
861
860
862
860
858
856
854
856
858
857
858
856
855
848
845
839
836
829
829
830
828
827
829
826
824
820
818
816
815
816
817
821
821
824
822
821
820
819
817
816
817
818
819
823
825
824
825
824
826
820
822
820
822
823
824
827
828
831
832
831
831
835
834
836
849
871
902
948
995
1044
1098
1152
1196
1218
1208
1158
1080
977
869
780
715
687
691
714
739
761
776
786
791
797
801
814
822
828
831
831
828
826
823
822
822
825
826
827
828
830
828
828
824
826
824
824
824
826
825
826
828
832
831
830
828
825
824
824
823
824
826
830
832
831
831
828
828
823
826
826
824
824
825
830
832
833
834
834
832
831
830
828
830
832
832
835
836
841
846
846
846
845
843
841
846
849
853
857
862
868
869
871
872
873
872
873
875
878
882
886
889
895
900
904
904
903
903
907
907
906
908
909
915
915
913
916
907
905
901
896
891
889
883
879
877
876
871
867
862
855
851
846
842
841
842
842
840
838
837
836
835
834
833
833
831
832
832
835
837
837
837
836
836
831
830
828
829
829
831
833
835
834
836
837
834
830
830
832
833
831
832
833
835
838
838
840
839
837
837
834
837
835
835
839
843
841
842
840
842
838
836
832
831
832
833
836
840
841
841
842
841
839
835
835
835
833
833
834
837
840
841
840
837
834
833
830
832
833
832
831
834
839
838
837
836
834
833
830
830
831
832
833
834
834
837
835
835
832
829
827
828
827
828
831
833
833
834
835
834
831
828
826
829
827
829
830
833
836
836
836
834
831
833
829
832
832
833
834
834
835
837
835
835
833
831
830
829
831
831
835
835
835
836
834
835
830
832
831
832
829
828
831
833
836
838
835
835
832
830
831
831
829
833
835
836
839
838
837
835
834
835
833
831
833
835
838
843
846
849
850
855
854
853
855
852
855
857
864
870
872
872
869
863
860
857
852
850
851
851
853
856
855
854
850
847
842
837
829
827
824
824
828
827
827
829
824
823
819
818
819
819
819
822
822
825
827
826
826
823
823
818
819
817
816
818
822
825
827
824
828
826
828
824
824
827
824
826
832
838
839
839
842
843
851
863
886
924
970
1019
1076
1132
1184
1226
1236
1213
1153
1064
957
846
756
705
700
720
757
791
810
820
823
819
821
823
824
830
833
833
836
836
835
832
830
832
828
830
832
831
832
832
836
836
837
836
834
832
831
830
829
831
834
836
836
836
836
834
835
833
832
834
832
833
835
835
837
836
839
836
836
836
835
835
833
836
841
841
844
842
843
842
839
838
841
839
839
843
847
849
853
854
856
858
858
860
860
861
864
867
872
876
883
884
888
888
886
889
893
895
898
903
907
910
913
915
918
921
921
918
919
917
917
921
923
923
924
922
920
914
908
903
899
893
888
887
884
882
880
879
871
867
860
856
854
851
845
847
848
848
848
848
842
841
841
841
839
838
838
839
839
841
844
843
844
842
840
838
836
836
834
835
839
839
843
843
842
840
838
839
838
834
837
841
837
842
845
846
846
843
841
837
837
841
839
841
843
844
847
847
846
843
842
837
837
839
839
841
844
844
847
847
846
845
842
839
837
836
834
835
840
840
842
841
838
839
837
835
831
830
828
830
832
833
839
838
836
837
836
834
832
829
828
832
833
834
835
835
836
835
830
826
828
829
825
827
829
832
831
831
833
832
828
828
826
825
825
824
828
828
834
834
830
832
828
827
827
824
825
827
827
830
831
829
830
828
826
825
825
825
825
826
825
829
830
830
831
830
828
830
826
825
826
827
827
832
833
833
832
833
832
829
827
827
825
825
827
829
829
833
835
832
831
828
826
826
827
825
830
831
833
834
834
834
834
831
830
827
826
830
829
830
836
837
837
835
834
827
829
831
831
831
832
836
838
836
837
833
835
831
830
831
828
829
828
831
836
838
837
838
837
836
833
833
832
833
834
839
840
838
839
837
836
838
839
836
838
841
845
850
855
860
860
864
857
857
859
861
863
864
867
872
873
873
870
865
863
859
855
856
852
853
853
859
860
856
851
847
841
835
831
829
828
828
830
829
832
831
832
826
830
828
826
827
828
826
825
831
831
835
834
834
831
831
830
825
827
827
830
832
832
832
835
835
836
836
836
836
836
836
841
845
845
850
856
864
872
898
937
985
1035
1090
1149
1202
1231
1228
1174
1086
972
855
761
711
704
732
768
801
826
832
834
830
828
829
828
833
833
837
839
838
841
840
840
839
838
838
838
837
833
833
841
840
843
846
843
843
838
835
832
831
835
835
839
839
840
843
842
842
839
837
838
836
838
836
840
840
844
845
843
842
839
840
839
840
838
841
844
846
849
850
848
851
851
848
849
850
851
852
853
856
860
864
865
867
869
867
870
870
871
874
879
884
889
892
896
896
894
898
901
902
904
907
913
917
922
923
923
928
930
925
924
925
925
927
926
925
921
920
917
911
907
904
898
893
889
881
880
876
876
875
870
867
864
861
857
852
852
850
851
852
851
854
851
852
848
847
843
842
841
841
841
845
845
847
847
844
838
834
834
835
835
839
839
843
847
846
848
846
844
843
842
842
841
840
840
845
847
850
849
848
848
842
843
841
840
844
843
845
849
850
849
848
847
843
842
844
843
842
844
845
849
849
850
847
844
846
840
840
839
838
840
841
839
840
843
844
840
837
833
834
833
836
837
841
841
843
843
843
839
835
828
827
834
833
834
838
838
839
840
839
833
833
831
832
833
830
834
836
838
841
840
839
838
837
832
832
833
833
833
836
835
838
838
835
834
833
832
827
828
831
833
830
832
835
835
835
837
834
832
829
828
829
831
834
837
835
835
836
835
833
831
828
830
828
830
833
836
836
839
838
832
830
827
825
826
831
834
834
840
838
840
836
836
834
830
827
829
828
829
831
833
833
832
832
831
833
830
827
828
829
829
835
840
840
841
845
847
848
846
847
850
850
852
854
857
861
866
868
869
865
863
857
855
855
848
851
855
860
859
857
854
847
840
834
827
823
828
826
830
830
829
827
823
822
820
816
816
816
820
821
821
823
823
824
821
819
819
816
816
818
816
821
820
824
824
827
828
825
825
823
822
824
828
829
833
834
831
835
835
838
848
867
899
944
990
1042
1095
1148
1201
1228
1225
1185
1107
1003
884
779
706
673
674
701
733
762
781
796
805
809
813
816
820
819
822
825
825
826
824
824
822
821
820
821
823
826
825
828
829
828
826
824
824
820
820
820
822
824
825
827
828
827
828
825
822
820
821
823
824
826
827
827
829
828
829
828
824
824
823
824
828
829
831
836
835
836
836
836
835
836
832
836
842
846
848
851
849
852
854
857
859
858
861
862
864
868
873
878
879
882
885
884
883
884
885
891
893
897
902
908
908
908
908
905
905
902
900
899
898
898
896
895
891
888
883
876
867
862
860
858
858
858
859
856
855
852
847
841
839
838
835
836
835
835
837
838
835
837
837
834
828
827
830
828
830
829
830
831
833
834
832
831
828
827
829
826
825
831
834
836
839
838
837
834
833
829
830
831
833
838
837
843
841
844
843
840
838
837
838
838
839
838
840
842
840
840
843
839
839
837
838
837
838
839
841
843
842
843
839
835
834
832
834
832
836
835
835
835
835
836
836
832
832
827
830
830
830
828
835
839
838
837
833
831
833
830
828
829
830
832
833
836
835
835
833
831
830
828
826
828
827
832
834
834
836
833
833
832
832
826
828
827
828
827
833
834
833
833
832
832
830
826
827
825
825
829
831
833
835
832
832
830
827
829
830
830
828
831
828
834
833
832
832
830
832
829
828
827
826
828
831
836
834
834
833
831
831
829
832
829
830
833
835
839
838
837
838
839
840
840
845
847
848
853
856
861
863
860
861
862
862
862
863
862
862
862
861
859
858
855
855
854
852
850
852
849
846
844
843
841
837
832
827
826
824
821
820
818
819
820
821
826
824
824
821
819
819
819
819
815
816
823
824
826
827
827
826
824
823
822
820
820
823
825
829
832
831
834
834
833
831
834
833
836
839
845
852
869
897
935
984
1034
1085
1142
1195
1235
1247
1223
1159
1064
950
840
748
700
692
716
750
783
804
815
818
820
819
820
827
830
834
833
831
829
829
830
830
834
831
835
838
837
833
828
831
830
831
834
835
839
838
838
837
835
833
831
832
832
835
835
838
837
836
838
838
836
835
836
836
835
834
836
838
841
839
840
840
836
836
834
837
839
841
843
844
847
851
853
855
851
852
856
854
855
858
861
865
870
870
874
875
877
876
878
882
885
890
892
897
899
901
908
907
909
908
912
911
915
917
921
925
929
930
930
931
929
927
922
922
916
914
913
912
910
902
899
893
889
880
876
875
868
866
863
860
861
858
856
852
854
851
848
844
844
843
843
843
847
845
846
846
844
841
842
840
839
837
839
842
845
843
843
845
843
841
840
839
838
841
842
843
845
845
848
847
844
842
843
841
843
845
846
846
848
850
848
849
849
845
847
845
844
842
845
846
849
851
849
850
845
845
844
843
842
842
845
845
846
847
849
845
843
842
837
837
835
835
838
842
841
841
840
842
838
837
834
835
832
833
834
835
838
838
840
837
837
834
833
832
827
827
832
831
835
838
837
835
833
831
829
827
827
830
830
831
833
833
832
831
832
828
828
827
826
826
826
830
830
831
833
831
829
829
826
827
825
825
825
828
827
833
834
832
829
829
827
823
823
826
826
829
829
828
831
830
829
826
828
828
826
827
829
830
832
832
831
830
830
828
826
826
824
827
829
829
830
830
831
830
829
828
824
826
827
825
827
831
831
832
833
832
829
827
827
823
827
824
827
831
832
831
832
833
830
828
826
828
830
831
834
836
840
846
847
853
852
852
850
850
849
852
851
857
862
865
865
862
856
852
847
845
845
846
849
849
851
853
851
846
838
833
828
824
821
817
819
821
823
821
819
821
819
817
819
817
818
817
818
819
819
822
821
819
820
818
815
816
817
819
818
821
823
825
825
827
824
825
824
825
826
828
832
836
838
844
847
854
869
895
935
978
1026
1082
1134
1187
1229
1240
1216
1153
1064
958
849
761
708
696
711
746
779
806
812
815
811
806
809
813
818
823
826
830
829
829
829
827
824
823
822
821
821
823
821
826
827
829
830
831
828
827
824
820
820
822
827
828
828
830
831
831
829
825
826
826
828
826
827
830
829
832
832
834
829
828
828
824
825
828
832
835
836
836
839
838
836
837
837
837
837
837
840
843
849
853
852
856
856
858
856
857
859
862
867
872
877
880
886
887
887
887
887
889
894
897
903
907
909
913
917
917
919
920
920
921
921
923
917
926
925
924
920
919
912
908
903
897
893
888
885
884
881
878
874
870
866
862
855
853
850
846
847
845
848
847
846
842
838
837
839
835
834
835
834
839
837
840
841
838
837
835
838
834
835
832
834
834
837
838
838
839
839
834
833
835
831
834
834
832
835
841
839
839
838
840
836
835
835
832
832
835
834
836
840
839
839
835
833
830
826
827
830
834
836
837
835
836
833
830
829
828
825
824
827
828
829
831
829
828
824
824
821
821
822
819
821
823
825
825
823
825
826
823
819
815
815
813
818
819
821
823
823
821
820
818
817
817
817
815
818
815
818
821
820
823
821
817
817
811
813
813
815
819
820
820
824
823
820
817
814
815
816
818
817
818
821
823
821
822
823
821
820
817
816
815
816
820
822
821
821
821
823
820
818
814
817
817
815
821
821
821
824
822
820
820
817
816
819
818
820
822
823
825
824
825
824
823
824
821
820
823
829
831
839
843
844
844
845
846
844
846
848
851
857
863
863
862
859
857
855
849
845
843
844
844
844
840
840
838
838
836
829
824
818
815
812
813
814
817
818
817
815
812
813
810
808
807
805
804
807
809
809
814
813
813
811
808
807
809
808
806
810
812
815
816
818
814
809
809
808
807
809
811
814
822
822
825
827
828
826
828
830
845
873
913
964
1015
1067
1120
1175
1219
1235
1214
1161
1075
976
866
772
708
678
680
698
729
753
766
774
778
780
791
799
807
817
821
824
821
816
809
808
810
810
810
812
816
822
823
821
823
820
816
816
815
813
813
812
812
817
822
823
822
823
820
819
817
814
813
818
816
817
823
823
820
817
817
817
817
818
819
822
822
825
828
830
829
827
827
828
828
826
829
829
832
836
836
837
840
842
838
840
839
842
846
849
850
856
859
861
861
864
867
870
869
871
875
881
888
889
891
892
895
899
898
901
900
898
903
905
907
913
917
916
917
913
910
903
898
894
889
887
886
881
880
874
873
867
862
859
849
847
842
841
842
843
841
843
841
836
834
832
829
826
828
827
832
834
836
833
832
831
829
829
826
824
825
826
830
832
834
832
831
831
826
825
825
826
829
832
834
836
836
841
840
839
837
837
834
833
834
837
839
841
845
847
846
844
842
841
839
838
837
843
844
846
846
845
843
844
841
841
840
838
836
839
837
841
841
840
841
840
839
836
835
833
831
833
832
835
838
840
840
837
836
834
835
834
832
833
833
835
833
835
834
836
834
833
831
831
830
832
835
837
837
836
834
834
831
830
830
828
829
830
831
834
833
834
832
836
834
834
831
831
831
832
834
834
838
836
839
838
831
831
833
831
830
832
832
836
840
837
836
835
833
831
833
832
833
835
839
839
842
843
843
842
842
845
848
849
853
854
859
861
865
866
870
872
870
872
870
868
866
863
865
864
865
865
864
863
860
861
857
852
848
844
842
837
839
837
836
832
830
826
823
820
819
822
824
827
828
829
828
831
829
827
826
826
826
826
827
830
832
832
833
833
829
830
827
827
827
829
831
836
837
837
840
837
839
839
841
842
842
846
856
866
899
938
987
1040
1096
1155
1214
1261
1279
1258
1201
1111
993
872
770
707
686
698
727
761
784
801
809
811
819
824
831
835
836
838
835
835
832
831
835
837
838
840
840
838
834
834
834
834
833
835
836
834
842
843
842
843
840
838
836
836
836
838
839
844
845
844
847
841
839
840
841
839
839
841
843
847
850
850
847
846
846
845
846
844
847
847
853
856
858
860
861
861
863
863
863
862
866
869
873
878
882
883
887
890
892
893
895
897
901
907
911
918
922
923
929
931
932
934
936
937
937
940
944
945
946
948
947
944
940
933
927
923
919
913
914
907
906
902
898
889
887
882
876
870
868
866
864
861
863
863
861
859
858
854
849
848
844
848
850
850
856
855
852
852
848
848
848
846
847
847
848
851
854
850
851
850
850
849
847
847
846
847
851
853
854
857
857
855
854
853
849
854
853
855
857
859
859
860
861
860
859
860
857
854
854
858
858
862
862
863
862
862
857
854
850
853
853
853
852
856
857
859
859
857
854
852
851
850
845
847
848
850
853
857
854
853
851
850
846
844
846
848
847
847
850
849
850
850
847
845
844
841
840
844
847
847
850
849
851
851
848
843
843
844
842
842
847
845
848
849
848
847
846
841
841
840
838
840
844
847
846
850
849
847
844
844
842
840
839
839
842
844
845
845
843
844
846
842
841
841
839
839
843
843
846
848
847
845
842
844
842
842
840
842
842
844
846
848
846
847
845
844
842
840
839
840
845
848
847
849
846
848
845
842
842
842
842
843
845
847
848
851
848
848
846
844
844
842
841
839
841
843
848
850
849
845
842
843
842
840
842
846
845
847
850
851
851
850
851
852
852
853
856
859
863
867
872
876
875
873
872
873
875
875
876
874
874
874
871
873
871
871
868
865
862
863
862
859
856
858
858
855
849
845
841
838
836
833
831
831
834
835
836
838
837
833
833
830
832
830
830
832
834
835
836
835
839
839
834
832
834
832
833
833
837
838
840
840
842
841
844
841
841
839
841
843
850
855
864
874
898
933
974
1020
1073
1125
1181
1231
1267
1275
1255
1198
1111
1005
893
793
726
694
704
738
776
805
826
830
828
827
824
825
827
831
839
838
841
839
836
837
838
840
838
838
838
838
837
837
840
842
843
844
843
843
840
839
836
838
838
840
842
842
845
847
848
847
845
842
840
840
841
837
840
845
848
849
850
850
847
843
845
845
845
845
848
851
851
850
853
856
855
853
850
850
849
850
856
861
864
867
871
871
871
873
873
876
879
882
885
889
895
899
901
905
907
908
907
910
910
920
923
927
931
934
937
938
938
939
941
940
943
944
947
949
949
949
947
942
937
930
926
916
910
906
900
897
898
896
890
885
879
874
866
863
860
860
859
860
861
863
859
858
855
852
849
849
848
848
850
850
854
855
855
855
851
850
848
847
847
848
849
851
852
851
853
850
852
848
847
845
847
846
848
849
855
854
855
855
856
850
848
849
847
846
849
852
853
853
856
856
853
851
848
848
846
847
848
852
850
853
851
855
850
849
847
844
843
842
844
841
846
846
846
845
844
843
840
837
836
836
838
839
839
841
839
840
840
838
836
836
835
835
840
838
840
842
843
841
840
837
837
835
835
832
832
834
838
842
839
841
838
837
835
832
834
834
835
837
836
840
839
837
835
831
833
829
831
831
831
834
835
837
838
835
832
835
833
832
830
833
831
834
837
839
834
837
833
835
832
833
832
831
830
835
838
836
839
839
838
836
833
833
828
830
832
835
834
837
836
838
837
835
831
830
830
829
831
836
839
839
841
838
836
836
833
835
833
832
837
836
840
838
839
836
839
837
834
831
832
834
836
839
842
843
842
842
841
838
837
837
837
836
834
838
841
844
845
845
842
845
844
843
846
846
852
854
862
866
866
868
866
867
865
871
872
875
878
879
877
871
872
870
869
865
863
862
864
859
858
855
854
852
848
844
841
838
830
829
829
827
831
830
833
833
832
831
831
832
829
827
827
829
826
828
830
832
837
836
836
835
831
830
829
830
836
837
839
839
840
841
842
841
838
843
844
848
852
853
862
879
907
948
992
1035
1079
1123
1178
1229
1262
1264
1227
1153
1052
937
825
741
696
684
699
731
760
783
796
803
806
814
824
832
832
837
839
835
834
835
835
837
839
839
837
834
835
837
834
837
835
838
841
842
842
842
839
841
840
838
839
837
838
841
839
843
843
841
841
839
838
838
838
835
837
843
844
846
848
847
844
844
841
840
840
842
846
850
849
856
857
856
856
854
854
855
856
856
857
861
866
869
874
876
878
876
874
874
877
884
887
889
895
896
903
905
907
907
909
909
914
919
922
925
926
935
934
938
938
934
931
928
928
926
927
923
921
918
914
908
902
901
891
885
883
880
876
873
871
870
867
865
861
862
857
855
851
850
853
855
854
854
857
855
851
848
849
848
847
848
843
846
846
852
854
851
852
852
850
847
843
848
848
850
851
857
856
857
856
855
855
855
852
854
854
858
861
866
867
863
866
859
859
856
853
856
858
858
863
865
865
867
866
864
861
860
858
856
858
860
862
861
862
861
861
858
856
858
855
856
857
858
859
858
854
856
855
857
851
853
852
851
850
848
852
854
855
854
852
849
847
848
850
848
850
850
851
853
852
852
852
850
849
849
848
847
847
847
850
852
851
850
847
850
848
848
844
843
846
846
850
851
851
853
850
850
849
847
846
842
847
849
851
853
854
849
850
848
846
846
846
844
844
847
851
848
853
852
850
847
845
845
844
843
845
847
849
851
850
850
851
850
848
847
844
847
848
847
850
851
854
855
852
852
850
847
847
847
852
854
857
856
856
857
857
856
858
856
860
864
868
871
872
880
880
885
886
888
887
889
884
878
877
877
878
882
882
881
880
881
874
871
869
862
858
852
852
854
851
850
846
846
843
844
844
841
840
842
845
846
848
846
844
844
840
840
839
839
837
841
844
846
848
847
847
843
844
841
843
843
845
847
851
853
853
858
859
858
858
862
861
866
875
904
943
991
1043
1100
1151
1210
1262
1293
1292
1257
1180
1078
957
840
752
706
694
716
751
783
804
815
819
824
830
835
844
850
855
854
853
846
844
844
845
847
849
853
853
854
854
851
847
850
848
848
845
849
849
855
851
853
855
852
851
846
849
848
850
852
853
852
855
855
855
851
850
849
844
843
847
849
854
855
859
856
857
857
855
856
857
851
856
860
864
867
866
868
869
868
870
868
868
868
870
872
880
887
887
890
892
893
893
893
897
898
899
906
911
918
922
925
927
930
928
931
934
934
937
942
945
949
950
952
951
952
947
945
943
943
937
935
933
932
928
925
921
915
908
902
896
891
886
885
879
880
880
876
876
868
865
860
859
858
858
859
862
860
860
859
857
859
857
854
854
856
854
852
851
856
852
856
856
855
851
848
850
852
853
853
858
859
861
860
857
856
856
856
858
855
857
859
859
862
863
863
862
859
860
858
856
857
858
863
865
865
867
864
863
862
861
859
857
855
856
859
860
863
860
859
859
859
857
855
852
853
852
854
855
858
858
853
854
854
852
848
848
847
847
845
846
850
852
850
849
847
844
843
844
843
843
844
846
847
848
849
847
846
843
842
841
844
842
842
842
845
847
847
846
843
844
841
840
839
839
840
844
847
846
844
845
846
843
841
839
840
842
840
842
843
844
845
843
843
839
839
840
836
836
841
843
844
845
847
845
843
843
841
839
839
840
839
841
844
846
847
843
838
838
834
836
836
836
840
841
842
844
842
842
841
840
837
838
837
841
839
839
841
844
844
843
842
839
840
839
839
837
840
844
845
846
844
844
845
841
841
840
836
841
841
840
843
847
846
847
848
845
844
844
845
851
857
863
867
869
872
873
872
872
870
872
874
876
877
879
878
878
875
873
873
868
865
865
864
863
865
864
864
862
857
853
847
842
834
833
830
833
833
834
834
835
832
837
832
830
831
830
829
828
831
834
836
837
838
836
834
834
833
835
834
831
836
837
842
840
839
840
841
842
840
842
845
846
851
857
863
874
895
930
973
1021
1069
1117
1174
1229
1275
1295
1281
1228
1140
1025
900
790
719
690
705
742
781
811
828
833
831
829
828
830
831
834
837
839
838
839
839
842
841
839
841
839
835
835
836
838
840
838
845
843
843
841
840
840
838
837
837
836
840
840
843
843
842
846
846
844
841
841
839
838
838
844
847
847
847
847
847
844
843
847
846
845
848
850
850
857
855
858
856
854
857
856
858
862
864
864
871
876
877
878
878
878
879
884
887
889
894
899
904
906
910
913
918
918
919
921
924
928
933
939
944
946
948
949
949
947
942
940
941
942
939
936
931
929
925
923
915
909
901
895
891
886
883
881
879
876
875
872
868
863
861
857
856
855
856
858
858
860
859
859
856
855
852
853
850
849
850
852
852
857
857
856
857
854
853
851
849
852
853
854
856
860
859
857
856
858
855
855
854
852
854
854
858
858
859
860
860
859
855
857
855
858
857
856
856
862
859
860
859
857
853
851
850
847
850
853
853
856
855
854
850
849
848
847
847
846
844
847
848
850
849
848
848
845
839
840
840
838
839
841
845
847
846
844
845
841
840
839
837
837
838
838
840
844
844
842
844
841
838
836
836
838
835
839
839
840
841
841
841
836
836
837
834
834
835
836
838
835
839
840
838
838
836
833
835
831
835
837
837
837
839
840
838
836
832
829
830
830
834
835
836
837
838
840
838
833
830
831
830
834
834
837
842
843
844
841
839
836
834
834
832
834
837
839
840
842
844
841
838
838
836
833
830
829
835
837
838
841
844
841
841
836
834
836
837
836
837
841
843
843
843
845
843
842
839
835
834
835
839
844
848
851
854
859
858
854
858
857
862
863
863
868
870
875
878
883
881
878
875
870
865
864
863
865
867
870
871
867
863
858
854
848
845
840
839
839
838
839
839
837
836
831
829
828
826
825
831
833
833
835
836
836
835
834
832
831
832
829
832
836
838
841
842
843
841
838
836
835
834
834
837
842
844
847
851
849
853
853
860
871
895
934
982
1035
1091
1153
1211
1260
1282
1274
1224
1145
1042
933
829
753
708
699
708
734
761
781
792
799
803
808
817
825
833
841
844
848
844
841
839
838
836
835
839
842
844
848
850
850
849
845
841
839
839
841
844
843
844
844
847
847
844
845
842
841
840
839
839
840
840
844
847
849
844
844
844
841
841
842
842
844
848
848
849
850
850
848
848
849
847
849
850
852
857
859
860
861
861
862
863
862
865
865
869
877
879
885
889
889
891
891
891
892
895
897
902
904
908
917
918
920
928
926
927
928
929
930
934
936
940
942
941
941
939
934
930
929
926
923
915
912
907
907
902
899
894
887
887
882
877
874
871
869
868
866
865
864
859
858
854
851
853
850
851
850
857
857
857
855
854
852
848
849
847
844
847
849
851
851
854
856
853
850
851
850
849
847
849
847
849
853
858
857
857
854
854
853
854
856
855
859
858
861
864
862
862
863
862
860
859
855
857
863
866
867
866
866
866
862
859
857
857
858
861
863
864
866
865
861
861
858
856
855
851
854
855
851
854
857
858
857
856
852
852
849
849
852
851
852
857
857
855
854
853
850
851
849
847
846
848
850
851
853
855
850
851
850
849
846
846
843
848
850
852
851
853
854
850
850
849
850
847
844
847
850
850
852
852
852
846
849
848
845
846
846
846
850
851
852
853
852
853
850
849
848
848
848
848
851
851
853
852
854
854
852
848
848
849
849
852
850
852
853
853
852
852
851
848
848
847
845
849
849
853
857
861
859
860
856
856
856
854
857
860
865
872
876
880
879
880
882
880
882
883
887
891
895
898
899
895
893
890
883
880
878
879
881
878
878
877
877
871
867
858
852
849
846
848
847
845
846
844
845
850
850
851
849
844
843
843
841
842
844
845
851
849
848
848
850
849
848
845
846
849
849
851
854
855
857
859
857
856
854
852
855
860
867
871
875
883
902
932
980
1036
1100
1165
1233
1292
1322
1311
1256
1157
1033
905
782
707
681
699
735
775
806
824
838
841
844
850
850
856
858
856
855
852
853
852
854
856
858
855
856
856
854
853
854
854
858
861
864
863
865
861
857
855
858
858
855
857
856
858
862
864
864
865
861
861
859
858
856
857
861
861
865
866
864
865
863
862
862
862
866
866
868
868
872
873
877
876
874
874
871
875
876
879
883
890
889
895
894
897
903
902
901
905
904
910
917
924
923
927
934
937
938
940
942
942
946
952
956
960
961
964
965
967
967
966
964
961
959
958
952
950
947
947
941
934
927
919
916
908
902
897
895
894
893
889
884
883
875
874
871
867
866
865
862
866
870
869
869
867
867
865
860
861
860
862
864
863
866
865
863
862
863
860
861
859
860
858
862
866
868
869
868
865
865
866
864
862
864
864
867
869
872
871
870
875
871
871
870
868
868
869
868
869
874
872
873
875
871
871
868
864
865
866
866
869
871
871
871
869
867
864
864
860
859
860
861
859
864
866
862
860
859
858
856
856
853
857
858
860
857
856
859
858
855
854
853
853
853
854
855
855
856
857
856
856
853
853
849
848
849
847
850
851
854
855
854
852
850
849
848
846
845
844
847
850
855
854
854
853
851
850
847
845
845
843
847
851
852
853
851
850
850
845
844
848
849
848
849
852
852
854
854
855
855
853
850
849
845
848
849
854
853
854
854
856
854
849
846
849
847
851
851
851
856
856
854
857
854
853
853
851
851
851
852
853
858
856
857
858
855
854
853
853
851
852
853
854
857
858
860
858
857
856
852
851
852
852
856
857
861
865
861
860
859
859
860
859
861
864
869
874
881
886
886
889
888
886
887
888
891
893
895
897
896
893
893
886
884
881
880
878
876
880
881
879
877
876
870
864
858
854
853
850
843
845
845
848
847
849
850
849
848
843
843
844
842
843
844
845
845
850
851
847
849
848
847
847
843
841
844
848
852
853
852
853
857
855
858
856
861
862
866
873
884
906
943
989
1043
1096
1152
1214
1272
1302
1300
1258
1176
1058
930
810
734
701
715
749
787
819
837
839
840
840
840
844
847
851
851
853
851
850
848
851
853
857
860
860
859
855
854
854
853
850
852
857
857
855
859
858
857
856
855
854
850
853
855
857
860
860
858
859
859
856
855
853
855
854
857
856
859
860
860
863
862
861
859
857
858
858
862
864
866
868
872
876
873
869
868
871
873
875
880
887
887
891
894
895
896
898
899
901
901
905
912
916
923
927
930
929
932
933
933
936
943
945
947
953
955
961
964
968
967
963
963
964
961
960
960
961
956
958
954
953
941
936
931
924
918
910
910
909
903
901
896
894
888
883
880
877
875
870
870
873
870
872
872
869
869
866
868
862
860
861
863
864
866
868
868
867
866
865
863
857
857
858
862
865
866
866
868
865
863
862
862
859
861
864
865
864
867
867
869
870
867
864
864
862
861
861
863
865
866
868
868
869
867
865
860
861
861
860
862
862
865
867
864
864
863
860
858
857
855
857
858
854
859
861
858
862
859
855
852
852
852
851
850
856
855
853
855
853
854
849
849
847
848
846
849
849
851
852
855
852
848
848
847
842
845
846
846
849
851
853
849
848
847
847
844
842
841
842
844
845
847
851
849
848
845
841
840
839
839
842
842
846
846
847
848
848
847
845
841
839
838
841
839
842
842
846
847
849
848
844
841
840
838
840
839
846
845
847
846
845
843
844
843
841
840
840
841
841
845
847
847
847
845
845
840
838
836
837
839
842
843
846
845
846
843
842
845
842
840
839
841
842
844
844
845
845
844
846
841
843
841
841
841
844
847
849
849
850
847
843
844
847
845
847
851
859
862
866
867
873
873
871
871
871
871
872
876
885
887
885
884
882
877
872
870
869
866
866
866
866
865
858
856
852
845
840
839
838
836
835
832
832
835
834
835
833
834
832
830
830
830
828
828
831
834
834
836
838
839
837
834
832
832
834
834
837
840
841
844
839
840
843
843
838
843
848
848
854
861
873
903
947
1001
1057
1117
1185
1243
1280
1283
1236
1152
1036
911
801
719
683
681
704
736
765
787
796
805
810
818
825
834
838
842
840
838
837
835
836
838
840
841
841
843
840
842
840
839
841
842
843
838
845
843
845
844
841
838
839
838
839
842
845
844
845
845
846
845
843
842
841
838
836
839
842
842
845
846
845
845
844
841
844
844
842
841
843
846
849
852
853
854
853
854
855
855
857
861
864
871
875
877
878
880
876
877
881
881
886
889
893
899
902
907
910
911
913
916
918
919
920
924
927
931
935
938
938
938
934
934
935
933
928
924
927
927
925
923
920
914
906
899
893
889
881
878
877
877
874
872
869
865
859
855
849
846
842
847
850
850
853
853
851
847
841
842
843
842
841
845
844
847
849
849
847
845
846
846
844
841
841
845
847
850
851
853
851
851
850
847
848
846
847
849
850
848
852
856
856
856
855
854
851
851
850
851
858
858
860
858
860
859
857
852
856
854
853
854
854
856
858
857
858
857
851
848
845
844
845
847
852
851
852
853
855
850
849
846
843
842
842
845
846
847
848
847
851
844
844
845
844
839
838
843
841
842
843
845
846
846
845
838
840
838
840
838
839
841
842
842
842
841
842
840
840
837
837
839
842
843
847
845
847
843
840
838
837
838
832
837
842
841
840
844
846
845
843
841
838
837
834
839
840
843
842
843
846
844
843
837
838
838
839
839
837
840
842
843
843
846
843
841
839
840
840
843
845
844
847
852
859
861
861
863
864
864
864
867
871
876
884
885
888
884
880
875
868
867
865
865
865
868
873
873
872
867
858
852
844
840
834
834
836
836
838
838
838
832
830
828
828
827
827
828
831
835
836
836
837
836
834
835
831
831
829
832
835
835
838
841
845
846
843
840
840
840
841
844
844
849
853
855
857
859
858
854
864
876
903
944
997
1056
1118
1181
1245
1299
1329
1320
1266
1172
1050
922
797
719
687
691
725
761
793
812
818
822
825
829
839
846
852
858
859
856
853
849
848
848
849
848
851
854
856
859
856
855
856
851
845
843
847
850
849
850
850
853
856
858
857
854
854
851
851
854
852
855
858
858
860
857
860
856
856
855
855
856
861
864
865
869
871
871
871
868
869
869
867
871
874
881
883
888
892
894
894
895
894
899
904
910
913
917
919
923
928
931
932
938
936
937
941
946
950
952
960
964
964
966
964
963
963
960
957
955
954
950
946
942
937
933
927
917
913
907
901
896
893
889
890
887
885
881
877
874
871
870
867
869
868
867
869
868
869
870
865
862
861
859
858
860
859
861
863
867
868
865
863
863
863
859
859
861
861
865
867
869
868
868
866
867
866
865
863
862
862
866
868
870
871
869
867
869
869
867
867
866
869
869
869
874
870
869
872
869
865
864
863
867
867
867
866
870
872
870
864
867
863
858
855
856
862
863
859
863
865
866
865
862
860
859
857
856
857
858
858
861
859
861
860
858
856
856
855
854
855
857
860
858
857
858
856
854
854
851
851
850
852
855
856
860
858
857
858
853
853
851
849
852
854
853
852
856
856
854
852
850
846
847
843
849
848
856
851
855
855
856
852
850
847
845
844
844
842
851
853
855
853
853
849
851
849
846
849
849
851
852
854
852
850
850
849
850
849
847
850
850
849
851
852
854
856
852
853
851
849
849
846
847
845
848
852
855
850
851
850
849
846
842
842
845
847
850
852
853
851
851
850
847
846
846
846
846
849
850
854
855
856
855
855
852
847
845
845
847
852
853
854
857
855
857
855
856
852
855
859
862
868
872
879
881
884
887
882
883
881
882
884
887
889
889
887
888
885
882
881
878
874
873
873
872
873
873
871
868
863
860
852
845
844
843
838
838
841
841
843
845
841
839
840
839
836
833
836
834
837
840
843
846
844
845
844
843
842
842
841
838
845
846
851
853
853
854
853
853
852
853
853
860
866
879
895
930
978
1032
1088
1142
1198
1253
1293
1302
1275
1206
1097
969
841
747
702
705
735
774
811
835
838
842
839
841
842
845
848
850
848
846
844
844
846
847
851
852
856
854
855
851
850
847
847
846
850
850
851
853
852
852
849
847
849
848
847
850
848
851
853
854
857
856
855
851
852
850
851
849
852
857
859
862
861
861
861
856
857
857
856
856
860
865
867
872
871
873
874
877
875
877
878
881
884
886
895
899
902
906
909
910
910
914
916
921
924
927
932
941
943
947
947
949
950
953
952
954
959
963
965
968
966
965
959
958
952
946
941
935
934
931
930
928
919
917
909
902
896
892
885
886
883
882
883
881
878
876
873
870
868
865
865
863
864
868
867
868
869
869
867
864
863
860
861
856
861
863
865
865
865
866
864
863
863
860
859
859
859
862
866
865
867
866
865
864
860
862
859
862
861
862
865
866
865
867
863
862
859
858
856
858
858
860
863
863
858
859
860
859
856
855
855
854
855
859
859
859
858
857
858
853
852
847
847
846
847
850
852
853
854
853
851
851
848
848
847
844
846
850
847
849
851
847
848
848
847
844
841
841
840
844
846
845
847
846
844
842
836
835
838
838
842
841
840
841
842
844
844
844
839
838
836
837
838
840
844
842
845
843
840
838
838
837
838
837
839
839
842
842
843
842
843
840
841
840
839
836
838
841
843
844
844
844
843
837
839
838
837
834
836
840
841
842
841
842
840
840
838
838
834
834
836
838
840
846
847
845
842
837
835
837
837
834
840
840
840
843
842
841
840
839
839
836
838
837
838
840
842
845
844
845
846
843
843
841
841
845
848
850
856
856
862
865
864
865
865
865
865
867
872
875
883
886
885
882
876
873
870
866
866
865
867
869
874
871
866
865
858
850
843
838
836
836
836
841
839
837
835
835
832
831
831
830
829
830
833
834
835
835
834
835
835
832
831
832
831
832
837
837
842
844
842
844
843
840
839
842
844
845
847
849
854
857
862
865
876
898
935
983
1037
1095
1155
1219
1271
1297
1278
1217
1116
994
868
762
695
672
687
720
758
782
801
810
813
818
820
829
836
841
843
845
847
848
848
849
845
845
844
845
844
843
843
843
842
848
849
850
849
848
847
845
845
843
847
846
848
853
854
852
854
849
846
849
844
845
846
849
850
857
855
853
853
851
848
842
845
845
851
854
855
859
861
858
861
860
860
857
856
858
859
864
867
872
873
877
878
880
879
881
883
888
893
899
903
907
912
914
917
917
922
924
924
926
932
939
942
945
947
950
950
947
949
947
949
948
947
948
949
947
945
939
930
924
917
914
909
904
899
897
894
892
889
885
884
879
878
874
871
866
867
867
871
872
870
866
864
866
860
860
859
856
860
864
864
867
866
864
866
862
861
862
861
860
861
862
863
866
867
867
867
863
862
860
864
865
869
869
873
872
874
872
870
873
871
870
868
869
868
872
875
880
878
882
878
876
872
874
868
868
870
872
873
879
877
877
877
873
872
871
871
872
871
868
871
871
873
875
874
873
867
869
869
867
866
866
871
874
875
872
872
871
868
870
868
871
868
868
870
871
873
873
872
869
869
867
864
867
865
868
871
870
874
874
872
870
867
863
867
867
865
866
869
869
875
876
876
870
867
866
865
865
862
865
864
870
872
873
871
869
868
867
865
866
868
869
869
872
870
874
872
872
871
868
865
863
866
869
871
875
874
874
875
875
875
878
880
881
888
894
898
899
900
901
904
902
903
903
906
905
905
906
909
906
907
906
901
899
897
895
898
893
896
894
888
885
884
878
874
872
870
867
865
864
864
863
867
868
869
870
869
867
861
861
861
863
864
865
866
868
865
864
866
869
865
863
866
865
868
869
873
873
876
874
873
872
871
871
873
877
881
884
889
893
899
906
927
958
1000
1050
1101
1162
1223
1282
1326
1348
1331
1274
1180
1062
939
826
746
709
708
736
771
802
825
837
843
844
851
857
866
871
875
877
879
883
879
876
877
876
876
875
873
874
877
880
884
882
882
883
881
879
875
875
872
871
872
876
882
879
882
882
881
879
876
877
874
874
876
878
880
883
883
884
882
878
876
874
873
871
880
879
881
886
887
887
887
887
886
888
888
888
894
897
901
905
907
910
910
909
908
911
913
914
920
926
931
933
938
942
944
946
949
949
953
956
961
965
970
975
980
981
984
984
984
981
980
975
976
976
976
972
970
964
960
950
945
934
930
928
922
920
919
914
914
909
906
899
892
890
886
883
882
885
884
883
885
885
887
884
878
877
877
876
874
875
874
876
880
881
879
879
872
871
871
870
871
871
876
879
878
880
879
879
876
875
877
870
874
876
878
880
882
883
881
880
880
877
875
874
875
877
881
881
882
882
882
882
879
879
879
881
879
882
881
880
881
881
880
879
876
875
872
872
873
873
875
877
877
876
876
873
866
864
864
863
864
865
867
869
869
870
872
868
866
863
861
863
864
866
866
866
868
867
868
866
863
861
861
861
864
862
865
865
868
867
867
864
862
861
862
858
862
865
865
865
866
866
865
864
861
861
863
860
860
861
860
862
863
866
865
864
859
860
860
861
862
862
867
870
873
874
878
881
879
880
880
883
886
887
888
897
902
903
904
901
896
895
889
887
886
886
886
885
890
889
887
883
877
871
865
858
853
853
854
855
855
854
850
845
843
845
845
847
853
857
854
853
849
845
843
844
841
843
845
844
847
848
850
852
856
857
856
856
852
853
857
860
864
863
862
862
866
871
875
884
896
926
963
1013
1070
1125
1183
1242
1290
1315
1305
1256
1174
1068
950
843
757
710
699
720
752
784
810
821
823
826
831
837
847
863
870
868
861
862
856
854
848
846
847
847
849
847
854
856
857
859
859
858
857
857
852
856
857
859
860
859
858
857
857
859
859
860
857
861
861
863
861
861
854
851
853
857
855
856
854
856
859
862
861
866
869
872
874
875
874
875
874
872
870
869
870
871
880
885
892
894
896
896
893
896
897
897
907
913
922
925
928
928
931
931
932
934
940
948
956
962
966
969
970
970
972
967
964
965
964
964
964
963
959
955
949
943
933
927
922
916
910
911
906
901
899
893
890
883
880
874
872
871
869
870
871
871
867
867
863
859
858
858
858
858
859
859
862
862
861
860
858
859
856
854
850
848
847
846
849
848
847
848
852
851
848
845
843
845
841
847
845
852
852
856
860
858
857
857
854
853
855
856
857
856
858
859
858
858
856
850
853
852
852
850
853
856
856
857
857
856
852
851
848
849
848
847
848
850
854
853
853
846
847
845
843
843
842
844
846
847
848
847
846
843
837
838
839
842
842
845
848
847
849
847
846
844
842
846
844
844
841
841
839
840
840
841
840
838
834
832
832
834
839
847
850
853
851
846
846
849
848
853
853
852
850
856
854
855
859
866
863
865
868
871
877
885
889
896
894
891
883
877
874
872
867
864
863
864
866
866
865
860
857
851
845
841
833
831
827
833
833
835
834
833
833
830
832
832
831
826
827
825
824
827
831
837
841
839
838
833
829
827
826
826
828
831
838
841
845
849
849
847
846
842
842
842
842
846
854
863
882
919
964
1014
1064
1121
1179
1242
1290
1308
1280
1209
1102
974
846
736
675
657
674
712
754
784
800
799
800
803
813
827
843
851
857
854
850
847
850
848
844
841
839
839
843
844
845
845
844
848
849
851
852
854
850
848
844
839
837
840
847
854
861
866
862
858
852
847
843
845
842
844
845
849
852
850
853
852
852
850
849
845
846
844
847
849
850
857
856
857
858
858
857
855
854
854
854
860
863
866
870
873
875
872
873
875
877
878
878
886
893
901
905
903
906
907
907
906
908
907
915
921
923
929
931
931
931
935
941
942
941
938
933
933
930
929
927
921
917
909
906
899
893
890
885
878
879
874
873
869
867
867
861
855
848
843
840
845
845
849
849
848
846
844
842
844
842
839
837
831
833
836
834
839
841
841
842
839
836
834
833
832
836
840
842
844
842
844
842
837
834
833
836
838
841
842
843
845
846
841
842
843
841
839
838
839
842
847
847
849
850
851
846
843
843
842
841
839
835
841
844
846
847
848
842
840
839
837
835
836
835
836
841
839
839
834
833
831
828
830
833
833
834
833
836
835
835
836
829
829
826
826
824
825
826
828
831
832
828
829
826
824
823
818
817
817
822
822
824
823
822
822
820
819
817
817
815
820
818
821
823
822
821
823
820
819
816
818
818
821
821
825
825
829
833
836
837
837
837
839
842
841
847
853
856
857
855
858
857
850
845
842
841
840
841
838
839
843
842
840
836
830
825
816
813
809
810
811
812
811
808
806
804
800
800
798
797
798
801
803
803
806
806
807
804
801
800
799
800
803
805
807
810
812
810
813
810
808
809
807
809
815
817
820
824
828
828
834
842
858
890
940
999
1060
1127
1198
1252
1277
1254
1179
1067
939
811
697
645
644
677
724
762
785
794
795
794
792
797
800
806
811
814
815
813
814
812
809
808
808
810
807
806
811
809
811
816
817
817
818
813
812
810
808
807
809
811
811
812
811
814
812
810
808
806
804
807
807
810
814
816
816
819
818
814
813
810
813
811
814
816
819
824
823
826
827
827
828
828
830
833
835
841
841
845
849
854
854
855
855
861
867
869
875
882
889
892
895
900
904
904
907
913
914
918
920
925
928
930
932
931
932
930
928
925
922
919
914
912
911
904
900
892
889
883
877
874
869
862
861
856
855
852
846
848
846
847
844
840
837
834
832
829
830
833
834
835
836
831
831
830
826
827
830
833
831
830
832
831
829
826
824
824
824
824
825
825
827
832
831
829
833
830
830
827
827
826
825
824
829
829
834
833
834
832
830
826
823
826
828
826
826
828
830
830
827
825
827
827
828
826
829
829
831
833
832
835
834
831
827
825
828
824
826
827
828
830
830
832
826
824
822
822
816
817
821
822
821
822
824
824
826
826
821
821
817
816
817
820
822
826
825
824
822
819
818
818
816
817
817
818
817
820
823
821
823
819
819
817
816
816
816
815
818
821
822
821
827
826
821
819
815
817
822
825
830
836
841
844
844
845
846
844
844
847
847
859
861
866
864
860
856
850
850
843
838
839
835
838
840
840
841
838
835
829
823
818
814
815
816
813
812
811
815
811
813
811
808
809
808
807
808
810
813
813
816
816
817
818
814
813
810
815
817
821
823
822
825
825
821
821
822
820
823
826
829
830
834
835
838
836
847
859
883
922
969
1020
1074
1130
1198
1257
1288
1282
1232
1146
1030
902
786
699
657
655
685
721
755
771
785
794
799
802
812
818
826
828
829
830
831
828
829
830
828
829
827
829
829
829
832
834
834
830
833
834
832
833
832
831
834
837
841
840
838
838
838
836
834
832
832
832
836
840
841
840
843
842
841
840
836
835
838
840
843
847
849
851
854
855
856
857
856
856
856
855
858
861
864
873
877
880
884
887
890
891
894
898
901
908
913
918
923
923
923
927
928
931
934
937
938
945
947
950
953
952
951
946
942
940
937
933
929
928
919
915
913
908
903
897
885
883
876
871
863
866
866
865
864
865
864
860
859
855
855
849
846
849
851
852
854
856
857
858
856
852
849
847
846
850
852
855
856
854
856
854
853
851
850
847
848
847
852
852
854
857
857
858
860
858
858
860
858
858
861
861
866
868
868
869
867
867
862
860
861
858
861
869
870
871
872
870
866
862
858
862
861
865
865
871
867
867
867
867
865
863
863
863
859
858
861
864
865
866
865
862
863
856
855
853
852
853
857
859
858
859
860
859
855
856
852
853
850
853
854
857
858
859
859
860
855
855
854
852
855
856
858
860
863
866
871
873
873
876
876
874
876
875
885
889
892
892
890
890
888
880
876
874
875
873
876
874
877
877
874
869
865
860
852
848
844
841
837
840
842
844
843
840
835
834
831
829
833
833
835
832
834
831
832
836
833
832
834
831
831
834
832
835
837
838
838
837
834
835
835
835
833
840
842
845
847
848
851
850
848
849
855
868
894
940
991
1041
1101
1159
1216
1272
1308
1309
1279
1211
1116
994
868
763
695
671
677
708
744
770
789
796
802
804
815
820
831
836
840
840
838
836
831
828
829
833
836
835
836
838
833
836
835
833
833
832
833
831
833
838
840
841
839
837
834
832
833
831
832
834
833
835
837
841
836
835
835
833
838
834
833
836
836
839
840
844
844
843
842
842
842
841
844
847
850
851
856
856
856
856
857
857
859
860
861
866
871
874
879
881
885
889
890
893
893
897
900
904
911
919
921
927
932
931
932
933
935
939
938
939
939
947
947
945
939
935
931
926
920
913
908
903
901
897
893
890
883
878
874
867
859
859
855
854
855
854
855
854
851
849
845
843
841
838
838
840
842
844
846
847
844
844
842
838
837
837
835
836
837
839
843
844
842
841
839
837
835
833
836
840
837
843
846
847
847
846
842
843
843
844
845
845
848
848
852
850
849
847
850
845
843
841
842
845
847
849
852
851
851
847
846
846
841
843
843
843
844
844
847
846
848
847
842
838
840
838
839
835
840
844
846
842
840
840
838
837
836
837
839
837
839
837
841
840
841
841
840
837
834
834
830
830
836
839
841
843
843
840
838
837
836
834
835
837
837
838
838
841
838
838
837
834
834
833
832
837
839
841
841
844
841
841
842
839
839
839
843
842
846
849
858
856
862
864
862
865
862
863
865
868
872
875
878
874
871
868
865
862
861
859
859
860
859
859
859
854
853
848
843
837
829
824
828
826
828
827
828
826
827
824
823
822
821
819
820
822
824
824
826
826
827
826
827
826
821
823
822
822
823
828
831
833
833
831
830
832
830
830
832
834
840
841
843
850
855
857
874
900
943
993
1047
1107
1165
1224
1272
1289
1264
1205
1106
989
865
763
700
678
700
741
780
809
821
823
819
816
816
822
829
835
838
839
840
837
836
833
832
830
835
834
835
835
838
840
840
840
840
839
839
838
834
833
833
835
837
838
841
842
839
839
838
837
835
833
833
836
838
839
841
845
843
844
843
840
841
838
839
842
846
847
847
848
851
849
849
850
850
851
852
855
859
861
866
867
871
873
871
870
873
872
870
875
880
890
899
907
911
916
916
912
913
913
919
923
927
930
934
934
939
936
938
943
944
946
945
942
938
936
932
931
925
924
921
913
908
898
892
888
887
885
884
880
876
877
866
862
860
858
855
855
855
856
858
859
856
856
853
850
849
848
848
850
850
851
856
855
854
855
852
849
848
847
845
850
851
851
856
855
857
855
855
854
852
852
850
854
857
858
857
858
858
861
860
857
858
857
855
854
858
862
861
862
862
860
859
856
854
853
853
854
856
856
857
859
855
856
854
853
851
849
851
852
852
852
854
853
856
855
850
849
849
845
846
847
850
850
852
852
848
844
847
843
845
841
841
842
843
843
847
846
849
848
842
841
839
839
836
838
842
844
846
843
846
841
842
840
841
839
842
839
842
842
841
842
844
843
838
837
839
836
836
836
837
840
844
843
844
841
843
840
841
842
841
844
844
845
844
849
853
852
848
849
852
855
858
861
865
869
874
874
870
876
876
879
878
878
877
875
874
872
871
873
869
865
862
865
863
860
859
856
851
852
849
845
842
840
839
837
834
827
828
830
830
832
834
835
833
834
832
833
831
829
829
831
833
832
835
835
837
838
837
835
833
832
832
831
834
836
842
846
844
847
845
845
843
847
847
852
860
867
883
912
953
1001
1052
1104
1159
1213
1261
1280
1263
1207
1122
1014
900
799
727
694
695
717
748
779
796
803
812
815
824
833
837
843
844
846
842
841
840
843
846
850
848
846
843
841
841
839
839
843
846
846
849
850
852
849
848
848
847
846
844
844
846
847
849
854
853
853
850
849
846
844
845
847
847
852
852
855
856
858
854
857
854
852
854
856
857
860
860
864
865
869
868
866
863
871
871
874
879
882
885
890
891
894
894
897
897
901
906
911
913
916
920
925
930
934
932
935
934
935
935
940
944
949
951
952
951
950
947
943
942
941
938
935
934
929
927
922
917
917
908
902
893
890
885
884
883
882
879
879
878
875
873
867
865
861
861
863
863
864
864
865
862
862
862
857
855
858
858
858
860
863
864
863
864
863
861
861
859
858
858
856
859
862
864
868
868
867
867
867
864
862
861
866
866
867
870
873
872
872
871
868
868
870
871
869
870
873
871
876
873
873
871
873
873
871
866
867
868
873
872
873
873
873
872
871
870
867
867
867
866
867
868
871
868
873
871
869
867
865
862
865
869
869
871
870
871
868
868
866
863
862
861
859
860
860
867
870
871
869
867
871
869
864
863
865
865
867
867
869
868
868
868
865
862
862
858
861
862
864
864
868
868
868
866
868
866
864
863
866
864
863
862
865
867
873
874
878
880
882
881
883
884
887
889
890
891
895
897
900
902
901
901
898
894
894
892
895
895
894
893
890
886
882
877
871
864
865
863
864
862
862
861
857
851
850
849
851
850
855
856
859
859
858
855
853
852
852
848
850
855
856
856
860
860
861
861
860
861
859
859
860
860
862
866
868
872
872
873
870
869
871
871
879
895
925
967
1018
1068
1123
1178
1231
1280
1304
1297
1250
1171
1062
939
828
740
696
691
715
754
782
808
819
828
835
843
849
855
860
863
864
864
860
858
856
857
861
865
867
871
869
869
863
863
859
859
862
864
868
866
869
868
870
866
865
864
863
862
862
861
863
868
869
869
866
864
863
863
861
859
860
863
865
864
870
869
870
870
866
869
869
867
869
874
876
879
883
886
886
887
884
886
888
889
890
894
901
905
908
913
914
917
917
918
920
921
924
926
933
939
945
943
946
944
943
944
948
949
952
955
958
957
957
956
953
946
942
935
931
924
923
919
914
913
910
906
902
896
885
882
876
876
872
873
870
873
871
871
870
866
864
863
862
860
859
860
863
865
863
866
863
859
857
858
857
857
860
859
860
861
863
864
863
863
864
863
862
