1059
1059
1059
1059
1059
1059
1059
1059
1059
1060
1061
1066
1070
1068
1063
1056
1043
1036
1041
1054
1063
1056
1037
1035
1048
1068
1072
1064
1056
1052
1052
1049
1046
1044
1046
1051
1052
1045
1035
1030
1026
1027
1021
1017
1012
1006
999
999
1002
1002
1002
998
998
997
996
994
989
992
991
990
987
985
988
991
989
984
981
981
987
990
986
978
978
982
989
992
990
986
985
986
991
992
988
986
989
988
989
985
984
988
987
985
982
975
976
987
1008
1029
1046
1058
1064
1065
1071
1090
1109
1131
1144
1150
1146
1139
1134
1131
1128
1122
1113
1102
1090
1078
1068
1059
1043
1020
995
968
943
926
915
910
900
892
884
886
890
892
893
892
896
901
905
906
909
908
908
912
921
927
929
927
927
931
932
932
932
930
929
931
930
927
927
923
923
924
926
926
925
923
918
918
920
924
925
923
920
921
923
923
921
921
920
924
927
925
926
927
928
928
928
933
934
937
935
941
941
943
945
947
947
950
954
954
951
949
954
963
971
973
969
967
968
976
982
981
979
980
976
978
984
986
988
987
985
987
993
992
989
987
987
988
990
990
988
989
991
995
999
999
997
992
987
985
992
995
994
988
982
986
988
987
981
977
976
984
992
995
989
985
984
986
990
987
983
980
981
985
987
985
982
976
971
969
965
960
953
949
943
939
937
934
936
936
936
938
940
938
937
933
930
929
933
932
931
927
927
930
933
934
932
932
934
936
937
933
929
928
929
935
938
930
926
923
927
935
939
938
934
930
931
933
936
932
927
927
925
927
925
925
927
941
961
983
999
1007
1014
1017
1030
1052
1075
1087
1098
1103
1104
1102
1103
1097
1093
1082
1068
1062
1058
1045
1028
1011
990
963
941
913
891
874
863
855
847
842
843
842
839
843
848
854
856
858
858
862
870
872
875
878
882
882
888
886
886
885
885
884
886
885
882
883
881
881
882
880
879
877
877
881
882
880
877
874
873
876
880
878
877
877
876
878
884
882
882
881
880
885
889
891
893
891
892
893
899
903
903
903
903
906
913
917
918
919
918
923
930
933
932
933
934
940
944
944
946
946
946
948
950
951
950
951
953
955
961
961
960
956
955
956
961
962
965
967
970
970
965
962
960
956
952
951
952
952
953
952
952
957
962
962
965
964
966
962
957
951
949
944
944
946
950
947
949
947
946
947
949
942
933
926
917
914
910
906
903
900
900
902
905
901
902
900
901
900
901
896
893
891
891
895
898
898
896
896
897
906
910
910
906
901
899
899
898
898
903
902
903
900
902
906
913
916
916
909
906
900
893
891
888
895
904
900
893
880
876
876
880
891
909
935
956
978
995
1005
1014
1023
1039
1064
1085
1106
1124
1136
1142
1141
1141
1135
1131
1120
1101
1086
1069
1056
1041
1031
1014
987
951
909
872
843
819
802
794
786
783
784
783
788
791
794
799
796
793
791
793
798
805
812
822
828
831
829
828
825
826
827
829
828
832
839
841
842
837
827
823
818
813
812
810
809
808
807
808
813
816
816
819
817
816
818
819
822
822
822
822
825
828
825
823
821
824
834
841
849
847
837
832
833
839
849
857
857
853
851
848
848
850
857
861
864
868
872
876
880
880
882
886
887
889
887
897
904
911
910
905
903
906
913
915
913
912
911
908
910
914
921
931
932
931
925
915
908
910
911
914
922
924
921
908
901
903
912
916
914
904
896
892
896
903
905
909
908
901
898
899
902
904
902
898
900
902
901
897
891
883
877
871
862
861
861
863
865
861
852
847
847
853
858
860
855
850
855
860
863
860
856
851
853
852
854
864
869
870
865
855
850
850
849
846
841
841
846
854
856
853
848
845
844
851
854
853
852
845
842
847
854
858
856
854
852
850
844
838
831
838
858
893
928
952
965
978
984
988
995
1008
1019
1036
1053
1065
1066
1061
1052
1044
1039
1034
1021
1005
989
976
965
953
934
915
890
856
825
798
776
755
732
719
713
709
708
711
715
723
725
731
730
734
738
743
749
759
764
764
765
770
776
783
786
792
793
795
798
804
803
801
800
800
802
804
804
800
801
802
804
805
805
805
804
805
804
805
802
802
802
804
806
808
807
806
806
807
810
812
811
810
810
810
815
820
820
818
820
818
826
831
832
831
833
832
838
844
843
846
847
851
853
857
859
860
861
863
866
872
873
877
876
879
880
884
886
889
889
889
893
897
897
896
895
896
899
901
904
902
902
904
909
910
909
910
909
911
913
912
912
914
909
907
905
902
904
904
906
908
910
914
915
914
911
910
913
916
913
909
907
907
907
910
912
911
908
906
904
901
894
885
877
870
867
866
860
856
852
851
850
848
850
848
847
846
851
853
850
850
850
850
851
853
854
852
854
855
858
856
857
857
858
859
861
861
861
858
861
859
864
865
861
860
862
864
866
865
863
864
864
862
861
861
858
855
858
868
889
908
927
944
954
958
965
974
993
1010
1022
1040
1051
1053
1050
1049
1047
1047
1044
1033
1022
1007
998
992
982
969
947
925
898
874
852
822
801
786
778
778
776
776
775
777
776
776
780
785
790
796
799
804
809
815
816
818
824
834
839
840
841
842
843
845
847
850
848
842
842
845
849
846
847
846
846
850
852
846
846
841
846
850
850
852
847
849
847
848
852
853
851
850
849
852
856
856
860
854
856
860
862
860
864
866
871
873
878
878
879
877
881
884
888
889
888
889
890
894
900
904
902
906
907
908
916
918
917
917
919
922
926
930
931
931
930
934
940
940
938
936
936
939
943
942
942
944
946
948
947
949
947
948
954
953
954
949
947
943
942
946
950
950
948
946
949
952
952
952
948
948
949
948
951
945
947
946
941
946
950
952
951
946
940
937
934
927
922
915
908
905
903
901
900
896
896
898
897
894
892
888
889
890
891
893
892
888
885
887
887
886
889
887
887
887
890
891
892
888
887
888
891
892
888
885
887
891
894
894
893
891
891
893
896
896
894
891
894
894
890
887
881
883
889
905
926
947
967
983
989
996
1009
1028
1045
1062
1076
1088
1099
1100
1096
1094
1089
1087
1084
1070
1053
1035
1023
1013
995
974
942
913
884
861
839
822
808
799
793
792
792
793
793
791
797
804
813
817
821
822
827
832
837
844
845
842
848
851
859
861
862
861
860
859
862
860
859
859
861
860
862
862
861
858
860
862
863
863
861
859
857
860
865
865
863
863
861
865
864
867
868
866
868
870
874
874
873
875
880
886
886
888
887
887
891
896
901
903
902
902
905
905
909
915
917
915
921
924
926
929
932
932
934
937
940
940
939
944
943
944
949
950
948
947
952
951
957
956
958
957
957
962
961
963
960
957
958
962
964
961
958
952
949
950
959
961
961
958
957
962
962
961
963
961
959
960
959
955
952
947
950
953
953
951
951
949
943
937
934
926
917
907
907
905
904
902
901
901
901
900
903
903
900
899
899
899
902
905
902
902
902
904
906
905
906
902
900
904
907
905
903
902
901
903
908
905
905
904
904
905
908
909
908
907
909
911
914
913
911
906
908
911
913
910
909
906
910
923
943
968
994
1024
1047
1053
1052
1054
1059
1065
1074
1088
1106
1116
1120
1119
1118
1120
1119
1112
1094
1075
1058
1042
1031
1013
988
956
927
902
883
861
841
821
812
808
807
807
806
808
809
813
817
819
826
831
839
846
853
857
858
861
868
873
880
884
886
887
889
893
893
895
892
887
888
892
895
894
892
888
885
887
888
889
888
885
881
882
888
888
887
885
883
889
891
888
885
885
887
889
889
891
892
892
893
896
898
900
900
900
902
903
905
906
907
908
910
917
921
922
925
923
929
929
934
937
940
937
942
947
948
949
948
950
952
955
958
959
961
958
963
968
971
972
971
972
975
977
981
982
980
978
981
984
986
986
985
982
982
983
985
983
982
980
978
977
976
978
977
975
975
980
984
984
983
980
980
979
983
982
976
972
971
971
971
972
972
973
972
970
965
960
954
948
942
938
933
933
929
925
923
925
926
926
927
926
925
923
924
922
919
920
922
926
926
926
924
922
921
919
923
923
922
921
922
924
926
924
927
924
923
921
922
926
928
929
929
930
929
928
929
926
925
930
931
933
931
928
925
928
929
931
939
952
975
1003
1031
1052
1071
1080
1085
1090
1100
1112
1127
1137
1155
1167
1170
1168
1161
1151
1141
1130
1115
1093
1072
1056
1038
1018
996
972
946
916
890
868
851
832
811
796
791
790
794
798
798
798
801
806
814
821
821
827
835
842
849
855
859
861
867
873
877
881
885
883
881
883
888
890
886
885
887
889
891
890
887
887
889
889
889
886
888
887
886
887
887
886
886
884
887
888
890
891
890
888
885
886
892
893
893
896
896
900
902
904
906
906
908
911
917
919
918
919
926
932
937
938
940
938
939
945
947
950
952
953
957
960
964
964
965
966
970
973
974
976
977
976
979
983
984
982
982
981
984
987
991
994
992
990
989
988
991
990
987
980
980
982
983
983
984
983
987
988
989
986
984
981
981
979
980
979
976
971
974
976
980
974
966
959
955
955
950
945
937
932
931
930
930
933
931
929
926
930
926
927
928
922
926
929
931
927
924
925
926
925
925
923
921
916
916
920
921
923
925
924
924
928
926
925
927
925
925
930
933
934
939
945
952
954
951
946
936
926
921
922
935
957
982
1006
1030
1047
1060
1062
1073
1082
1090
1096
1106
1109
1111
1104
1097
1096
1092
1084
1067
1055
1042
1033
1021
1006
987
960
935
913
895
874
850
832
827
831
835
835
827
823
825
833
846
856
861
857
854
851
851
857
867
881
893
896
895
890
887
886
891
897
901
901
901
901
900
902
904
905
901
899
897
897
895
901
900
898
897
899
904
905
904
904
904
905
910
910
909
911
915
917
919
918
915
914
916
920
920
923
925
923
926
929
936
937
937
940
944
947
950
953
954
954
957
960
962
968
967
966
969
971
975
976
975
974
974
980
982
982
985
984
987
989
993
991
991
989
993
997
1000
999
995
993
994
994
997
994
992
988
991
995
994
994
997
995
995
997
995
993
990
984
983
983
985
988
985
987
992
992
990
979
970
966
962
962
957
953
946
942
940
937
940
941
936
935
933
937
938
940
937
934
933
935
935
939
937
937
935
938
940
939
938
936
937
941
943
942
941
937
940
942
940
942
936
934
936
943
942
944
942
943
940
940
938
937
935
941
959
987
1010
1024
1029
1031
1043
1061
1084
1101
1111
1110
1111
1110
1110
1105
1096
1079
1066
1056
1047
1033
1015
990
966
942
917
890
869
853
846
841
840
840
845
843
840
844
854
864
868
871
873
880
889
894
895
898
903
906
907
909
909
908
909
912
913
910
907
904
908
909
910
910
909
905
909
912
912
911
909
907
908
911
912
913
910
908
911
913
917
919
914
917
920
922
924
927
925
926
928
931
935
937
941
941
944
947
945
949
954
956
956
963
965
969
968
969
973
975
978
979
978
979
983
984
989
988
989
993
991
996
997
1002
999
1001
1004
1008
1007
1008
1008
1004
1003
1002
1001
1000
1002
1000
1005
1007
1009
1010
1007
1002
1003
1006
1005
1004
1001
997
996
995
996
997
996
993
991
986
982
975
971
964
960
954
953
949
943
943
944
945
944
944
942
940
940
943
942
943
942
938
939
943
946
944
943
939
941
946
944
946
945
944
943
943
944
945
942
939
943
946
948
949
944
943
945
950
951
952
948
945
943
943
941
940
939
949
973
997
1021
1036
1040
1042
1056
1078
1103
1122
1135
1142
1147
1147
1145
1140
1129
1110
1095
1083
1072
1057
1036
1005
973
944
919
894
871
857
850
848
850
848
848
846
848
850
857
865
867
872
878
883
890
894
894
897
903
909
913
914
913
912
916
916
915
915
916
914
912
915
917
918
916
912
914
915
917
918
915
913
913
916
919
921
920
917
919
924
925
926
925
925
925
931
931
934
932
932
937
941
940
943
942
942
948
951
958
959
961
961
961
967
972
976
978
977
977
980
983
987
984
984
988
992
998
1001
1001
997
998
999
1003
1003
1005
1008
1013
1022
1026
1026
1020
1017
1025
1034
1037
1027
1011
994
988
991
995
1001
1003
1005
1009
1011
1011
1008
1008
1010
1010
1012
1012
1012
1009
1003
1001
1001
1001
1002
1002
997
993
989
984
980
975
972
973
972
968
960
954
951
956
971
983
987
979
964
952
943
937
933
929
929
933
935
939
944
945
944
939
938
941
946
947
942
939
939
944
949
953
953
955
958
965
969
972
967
967
964
958
954
954
959
961
958
953
953
959
977
995
1010
1016
1025
1037
1052
1070
1090
1105
1111
1116
1128
1149
1163
1164
1154
1143
1139
1143
1144
1134
1119
1105
1090
1077
1063
1044
1015
981
943
912
886
874
864
854
840
835
833
835
841
838
840
851
862
870
876
881
888
891
900
904
906
907
912
923
928
929
928
926
933
939
941
946
953
952
939
927
919
923
918
912
900
897
898
901
901
903
903
903
902
905
906
905
906
909
911
911
919
921
923
924
925
929
934
936
940
944
957
968
974
970
958
942
935
940
953
967
977
984
983
987
994
995
989
983
987
993
1001
1001
999
1000
994
991
988
985
979
984
993
1013
1034
1039
1038
1027
1014
1008
1008
1012
1018
1027
1035
1040
1043
1046
1053
1045
1019
997
989
995
1002
1000
990
985
994
1003
1012
1018
1013
1011
1008
1003
993
981
968
965
966
967
963
962
960
962
964
968
962
960
964
973
977
967
951
944
943
953
950
943
936
939
944
950
954
954
953
954
956
954
954
950
954
956
957
957
958
960
959
960
961
967
968
966
968
971
976
978
970
964
955
951
952
955
956
957
962
977
1002
1023
1041
1057
1065
1064
1064
1074
1093
1113
1132
1151
1169
1183
1185
1182
1175
1173
1169
1160
1138
1121
1109
1096
1082
1064
1037
1009
981
959
938
918
901
885
875
869
867
864
864
865
865
864
862
867
871
879
885
893
899
903
906
906
906
912
917
922
929
929
932
934
937
940
940
936
937
939
940
937
939
937
936
934
937
938
936
935
932
934
936
938
939
936
934
936
939
939
941
939
936
939
940
942
943
941
942
943
947
952
953
951
951
956
960
963
963
965
966
971
977
979
980
979
976
981
986
992
996
997
997
1000
1005
1008
1009
1009
1009
1013
1018
1018
1018
1021
1021
1023
1027
1031
1031
1031
1030
1035
1039
1043
1044
1045
1043
1045
1047
1046
1045
1039
1037
1037
1040
1043
1043
1046
1043
1044
1046
1043
1042
1040
1036
1038
1037
1036
1037
1036
1035
1036
1040
1039
1035
1028
1021
1014
1011
1006
1002
997
989
985
982
982
982
980
975
974
977
980
978
978
976
975
977
978
977
976
973
974
978
977
976
971
973
972
974
978
977
977
976
978
979
977
976
976
976
980
981
983
982
981
980
979
982
982
982
981
977
973
972
971
971
970
974
993
1016
1034
1054
1067
1079
1088
1102
1122
1143
1162
1180
1196
1211
1218
1220
1214
1212
1207
1200
1184
1161
1141
1123
1106
1087
1064
1038
1004
971
949
928
906
888
874
866
859
858
857
857
858
855
855
860
869
873
878
884
890
894
899
902
903
906
913
921
926
926
928
926
931
933
933
935
934
932
931
932
931
933
929
929
929
932
931
932
929
927
925
927
928
928
924
922
923
926
926
925
925
924
924
927
930
929
930
929
930
934
937
937
937
938
941
942
946
946
947
947
949
951
957
961
962
961
963
967
973
975
977
976
979
981
989
992
995
993
994
997
1000
1000
1002
1002
1004
1008
1012
1014
1015
1013
1016
1016
1022
1027
1028
1027
1024
1026
1029
1029
1028
1027
1027
1029
1027
1023
1019
1017
1019
1024
1029
1030
1027
1023
1021
1023
1023
1023
1018
1017
1017
1017
1018
1017
1012
1011
1014
1016
1015
1012
1005
997
992
988
984
979
971
966
960
959
957
955
952
947
950
952
957
955
955
952
951
954
957
956
953
951
952
955
957
955
952
951
952
954
957
955
954
949
954
956
960
959
957
955
955
956
958
963
961
958
958
962
961
962
959
953
954
963
980
1002
1028
1048
1064
1081
1093
1103
1110
1123
1137
1155
1172
1185
1188
1183
1175
1170
1164
1154
1136
1113
1097
1083
1066
1046
1025
994
963
934
913
892
870
850
839
834
830
832
829
829
834
836
841
845
852
856
860
869
874
880
879
883
887
896
902
902
904
902
909
915
918
918
915
913
912
913
914
915
912
911
911
911
916
912
911
908
911
913
916
914
912
912
915
916
919
917
917
915
917
919
922
923
924
924
929
932
937
937
935
935
940
942
945
947
944
948
950
952
956
960
959
958
961
967
971
973
978
979
982
983
989
989
992
989
990
992
997
996
997
997
1000
1002
1004
1007
1007
1006
1011
1014
1016
1014
1015
1014
1016
1020
1021
1017
1013
1009
1007
1014
1016
1016
1014
1013
1009
1009
1011
1011
1009
1008
1007
1009
1011
1010
1009
1005
1003
1006
1008
1008
1006
1002
998
997
990
987
979
971
966
963
959
956
951
952
953
954
953
952
951
949
951
951
954
952
948
950
950
954
953
949
948
945
948
951
953
957
953
951
951
950
953
952
952
950
952
951
954
954
955
950
951
953
954
955
956
958
959
960
957
952
948
946
951
960
983
1008
1029
1041
1053
1058
1063
1072
1083
1095
1110
1126
1141
1143
1142
1134
1133
1132
1130
1125
1111
1096
1084
1071
1059
1046
1024
999
975
953
931
905
884
866
856
853
851
850
847
846
846
849
853
856
859
866
873
879
883
886
887
890
897
904
907
909
911
910
912
916
919
918
916
916
915
916
918
916
915
912
910
914
918
919
917
914
912
916
917
917
917
917
916
915
913
914
915
915
917
919
922
923
927
924
927
932
937
936
936
937
941
944
945
948
946
950
954
958
961
962
964
963
966
969
974
978
978
975
978
982
987
991
991
989
991
992
997
996
993
990
993
996
1000
1003
1004
1006
1008
1011
1013
1012
1012
1013
1014
1013
1011
1005
1004
1004
1007
1010
1012
1012
1012
1013
1014
1015
1017
1018
1013
1009
1005
1000
999
998
996
996
997
997
992
988
981
981
981
981
975
962
947
943
948
955
958
956
945
936
937
939
943
945
944
942
945
946
945
946
945
944
947
946
950
948
947
946
947
950
953
951
948
948
947
950
953
950
949
951
953
954
955
956
956
953
950
952
947
946
943
942
950
966
990
1011
1027
1035
1040
1047
1063
1079
1097
1111
1125
1138
1146
1149
1146
1144
1144
1137
1127
1109
1092
1079
1070
1058
1037
1014
985
958
931
908
891
879
867
859
854
853
852
856
854
850
850
855
862
869
873
872
881
885
888
894
896
901
905
910
915
916
918
914
916
920
922
924
921
918
920
922
923
919
917
914
914
915
917
919
917
915
915
918
918
916
917
914
915
917
919
919
918
919
920
922
927
927
925
924
929
932
937
937
939
942
946
951
952
954
957
955
955
958
959
960
961
960
963
964
967
976
984
990
991
990
986
981
975
977
981
988
991
995
997
996
1002
1007
1013
1015
1015
1014
1016
1018
1022
1021
1022
1018
1016
1017
1015
1013
1013
1012
1016
1019
1021
1022
1019
1016
1017
1017
1019
1014
1010
1009
1009
1012
1012
1013
1010
1010
1010
1007
1003
993
987
980
975
969
966
962
959
952
954
953
953
952
952
949
945
950
949
950
948
944
946
948
950
949
944
944
947
948
951
951
946
947
949
951
954
952
950
949
951
951
952
954
953
952
953
955
957
957
954
952
950
952
949
943
939
939
948
964
984
1006
1025
1039
1049
1057
1073
1093
1115
1131
1152
1169
1181
1188
1188
1183
1179
1175
1164
1144
1124
1106
1090
1078
1058
1034
1003
971
947
924
900
875
862
852
845
843
844
844
841
838
841
845
853
860
867
869
875
881
882
888
890
890
897
902
908
911
909
910
913
915
915
918
915
912
914
917
917
915
914
913
912
913
913
912
910
908
911
914
914
914
912
909
911
912
913
916
914
914
912
915
918
921
921
919
923
926
927
930
932
931
934
938
942
945
945
946
947
951
960
960
962
960
965
969
971
971
974
975
977
982
985
987
988
987
990
994
995
998
997
997
1000
1004
1009
1011
1013
1013
1015
1021
1023
1022
1023
1019
1020
1016
1018
1018
1016
1014
1016
1017
1020
1022
1020
1018
1017
1018
1019
1018
1017
1013
1011
1010
1013
1010
1010
1008
1008
1009
1005
1000
992
980
976
971
969
964
957
953
954
952
953
952
948
943
944
947
949
950
948
945
946
948
948
947
946
945
946
948
948
946
945
941
945
947
950
950
950
946
945
945
948
949
948
945
947
949
951
950
949
944
943
939
941
944
950
973
1004
1038
1061
1078
1088
1099
1122
1146
1167
1188
1204
1208
1210
1206
1201
1187
1165
1138
1112
1089
1072
1046
1019
983
949
921
895
867
844
828
822
818
816
820
821
819
822
826
833
843
850
856
858
866
868
874
877
881
887
893
898
900
900
897
899
902
903
902
899
898
897
898
900
899
896
896
896
895
896
895
897
894
894
898
898
899
896
895
897
899
902
902
901
901
905
908
911
910
911
914
918
922
926
925
929
928
932
936
940
943
945
947
949
952
958
963
963
959
964
968
973
976
977
979
981
983
987
990
990
991
995
1001
1004
1004
1003
1005
1005
1008
1009
1008
1007
1002
1001
1002
1002
1005
1005
1007
1010
1008
1010
1006
1005
1004
1005
1004
1002
999
996
994
995
996
1000
998
993
987
980
977
971
962
952
943
942
943
940
940
937
932
933
935
934
935
933
931
932
932
932
932
930
928
929
931
934
934
935
935
936
935
935
933
934
934
935
936
938
939
938
935
936
940
940
942
941
940
942
940
941
942
942
935
935
937
941
950
968
992
1021
1044
1063
1076
1079
1085
1101
1121
1139
1152
1163
1163
1159
1152
1146
1138
1125
1104
1086
1069
1051
1035
1014
986
955
928
903
877
853
835
824
821
818
818
818
818
819
823
830
837
843
847
854
860
862
865
868
873
882
888
892
894
893
894
897
899
899
899
900
896
896
898
902
899
899
894
898
899
900
898
896
895
896
899
903
899
899
898
901
902
905
908
907
907
910
913
915
918
919
921
924
929
933
934
938
937
939
945
949
952
955
955
959
963
967
969
971
971
975
978
981
984
985
985
988
990
994
995
995
998
997
1002
1006
1004
1007
1007
1008
1012
1013
1006
1002
996
998
1001
1004
1007
1007
1004
1007
1006
1006
1006
1002
999
999
1001
1000
1000
997
996
996
993
990
982
975
969
963
960
954
949
946
941
941
942
942
942
941
939
939
939
941
939
939
937
938
941
942
941
939
938
937
938
942
943
937
942
941
941
943
943
940
939
943
944
945
947
947
945
947
949
950
949
946
940
940
941
946
963
987
1011
1032
1046
1052
1055
1067
1085
1105
1123
1139
1150
1155
1152
1150
1149
1149
1139
1124
1104
1089
1080
1066
1053
1032
1006
979
948
927
899
876
860
850
847
844
839
838
837
841
841
845
850
854
860
866
875
878
881
880
885
892
898
903
905
906
907
910
910
913
913
912
908
910
910
911
910
911
907
909
909
911
909
907
905
907
907
908
907
906
907
907
911
913
914
912
911
914
917
920
920
920
920
923
927
932
932
934
932
936
942
948
948
952
952
956
960
962
967
966
968
972
977
980
982
983
984
988
990
994
996
995
995
1000
1003
1007
1007
1009
1009
1012
1016
1019
1021
1018
1017
1019
1022
1019
1017
1011
1009
1011
1014
1018
1020
1018
1018
1017
1014
1018
1017
1016
1013
1011
1009
1010
1010
1009
1007
1010
1008
1006
996
989
981
975
972
969
964
956
953
954
956
953
953
948
947
947
949
948
949
950
949
947
950
951
951
949
948
950
952
953
954
950
948
951
950
953
951
953
954
954
956
958
958
957
956
956
959
963
960
957
952
949
948
945
949
955
970
999
1023
1041
1049
1053
1061
1083
1105
1129
1147
1163
1173
1181
1186
1188
1187
1179
1167
1149
1130
1115
1102
1082
1056
1035
1010
980
948
917
893
876
869
863
855
852
848
849
850
851
851
854
856
866
874
881
883
884
887
893
898
906
908
910
911
916
919
923
923
922
921
921
922
923
922
921
917
918
918
921
920
919
916
917
921
921
920
917
915
920
922
923
920
920
919
923
925
924
925
924
924
928
932
933
934
934
934
937
943
946
949
949
949
953
957
961
964
966
964
967
973
976
978
980
980
984
987
994
992
994
994
1000
1003
1004
1005
1007
1009
1011
1017
1020
1022
1022
1025
1027
1029
1030
1032
1032
1030
1030
1028
1027
1028
1028
1029
1033
1034
1032
1033
1031
1027
1029
1033
1033
1029
1027
1024
1024
1024
1023
1023
1023
1017
1017
1014
1010
1001
994
988
981
976
969
965
962
960
959
960
958
957
956
953
955
955
956
956
954
951
954
955
956
957
956
953
952
955
958
958
956
955
956
957
959
958
956
958
959
963
962
960
958
961
962
964
961
958
951
945
943
947
960
981
1006
1030
1047
1061
1070
1083
1102
1124
1148
1168
1187
1202
1210
1211
1213
1210
1203
1186
1161
1136
1119
1104
1084
1057
1022
989
954
929
901
878
865
854
850
845
843
844
844
843
842
850
856
864
867
873
879
885
889
893
894
898
903
910
913
916
915
915
917
921
921
920
916
913
916
915
917
915
912
914
913
915
914
914
911
909
912
914
913
913
912
912
915
917
916
917
916
916
917
921
923
923
922
922
926
930
934
935
936
936
938
943
948
949
948
949
953
959
963
965
966
965
969
973
976
978
981
983
985
988
992
994
995
996
1000
1004
1006
1006
1009
1008
1012
1020
1021
1022
1019
1019
1023
1025
1028
1030
1026
1021
1021
1022
1023
1022
1019
1021
1024
1027
1027
1026
1025
1022
1022
1027
1025
1022
1020
1015
1013
1016
1016
1013
1011
1010
1013
1014
1012
1003
994
988
983
981
974
968
962
957
954
956
955
953
950
948
947
949
950
948
946
945
947
949
948
947
946
944
944
948
949
946
945
943
944
949
951
950
948
947
950
950
951
950
947
948
952
953
954
954
955
954
953
956
958
954
952
948
944
945
945
946
954
969
998
1027
1053
1073
1087
1094
1107
1129
1151
1172
1189
1207
1226
1235
1237
1232
1227
1218
1202
1181
1154
1129
1108
1085
1063
1042
1012
975
941
910
885
862
843
829
822
814
815
817
820
818
817
818
826
837
845
849
856
858
866
870
875
881
883
887
892
895
899
897
896
897
897
898
901
899
897
897
895
900
901
897
896
893
892
896
895
896
894
891
893
898
897
894
892
889
891
895
896
895
897
897
898
905
906
907
908
909
910
913
916
919
920
921
924
928
932
936
938
938
942
945
952
954
955
959
962
966
969
970
970
969
974
978
982
983
982
985
993
994
995
997
997
999
1006
1008
1012
1013
1009
1011
1013
1016
1016
1016
1011
1007
1009
1008
1008
1009
1010
1010
1014
1016
1016
1014
1011
1009
1011
1011
1009
1008
1005
1001
1002
1003
1004
1006
1002
996
997
992
990
982
975
967
963
958
952
948
944
940
940
942
942
941
938
936
937
939
938
939
937
933
934
935
936
936
933
931
933
935
933
935
934
935
935
939
940
938
938
939
939
942
939
940
938
937
938
941
946
945
943
940
941
944
945
943
938
934
937
943
949
960
978
1006
1030
1051
1070
1077
1081
1089
1106
1127
1144
1159
1169
1178
1185
1185
1180
1175
1168
1161
1147
1132
1113
1097
1082
1065
1052
1034
1015
987
956
929
907
886
868
850
836
827
824
824
822
823
821
821
824
829
834
842
847
852
857
866
870
871
875
878
886
891
894
895
895
898
899
902
906
903
900
898
898
901
901
899
897
893
898
902
899
900
897
895
897
897
901
901
900
898
898
901
903
901
901
902
904
905
910
909
909
908
913
918
920
924
921
922
928
933
936
940
944
945
945
948
955
957
958
961
965
968
970
975
977
977
981
982
987
989
987
989
992
997
1000
1000
1000
1000
1001
1006
1010
1011
1012
1010
1012
1016
1018
1017
1014
1009
1008
1010
1012
1012
1012
1009
1012
1016
1018
1016
1013
1012
1013
1012
1011
1008
1004
1004
1004
1002
1008
1006
1001
994
992
986
983
977
971
961
959
957
954
954
950
950
949
950
949
945
945
942
940
943
941
942
942
941
942
944
945
944
940
939
938
942
945
944
943
940
944
945
946
947
944
945
949
948
950
949
948
948
948
952
953
950
947
942
941
940
943
950
958
980
1008
1032
1051
1058
1063
1073
1093
1123
1146
1162
1179
1187
1192
1195
1194
1189
1182
1172
1152
1136
1121
1108
1090
1071
1050
1025
998
969
940
912
886
870
859
851
840
838
837
838
839
839
837
838
845
852
860
866
871
871
876
881
886
892
892
899
902
903
908
911
910
910
911
912
912
911
909
907
908
909
908
907
907
903
904
907
910
905
905
903
902
904
906
907
906
905
906
908
910
912
908
907
912
915
917
917
917
915
922
924
929
930
931
932
935
940
943
946
947
949
953
957
961
965
965
967
970
975
977
983
981
985
987
991
994
994
994
994
999
1001
1007
1008
1008
1007
1012
1017
1020
1022
1020
1021
1024
1026
1028
1027
1023
1018
1017
1019
1020
1017
1020
1019
1022
1025
1024
1024
1020
1019
1018
1020
1020
1019
1011
1010
1010
1012
1010
1014
1011
1010
1007
1004
999
993
985
976
973
969
964
960
957
953
954
955
957
952
950
948
948
951
952
949
947
947
948
949
950
951
948
947
949
950
953
951
950
950
950
951
953
954
952
950
952
956
956
957
954
955
955
958
958
956
950
946
942
943
942
948
963
984
1010
1035
1050
1060
1072
1087
1116
1142
1165
1182
1195
1206
1213
1219
1217
1211
1198
1176
1153
1134
1117
1097
1070
1044
1013
979
952
921
895
875
864
856
848
845
843
842
844
845
846
850
854
861
867
876
880
881
885
891
896
899
906
908
908
908
912
914
916
915
911
909
912
912
913
912
907
908
906
907
908
907
907
904
906
905
911
907
906
905
906
909
910
913
913
912
913
917
918
920
922
924
928
932
936
936
937
941
945
949
954
956
954
957
961
967
969
972
974
974
979
981
988
990
990
988
995
998
1003
1003
1006
1006
1011
1014
1019
1019
1020
1019
1022
1025
1028
1028
1026
1021
1020
1021
1021
1020
1021
1022
1024
1024
1026
1025
1021
1021
1021
1020
1019
1019
1014
1011
1011
1013
1013
1014
1011
1004
1001
998
991
983
977
968
963
960
956
953
951
950
949
950
948
947
947
942
944
944
945
946
945
941
944
945
946
945
945
943
946
947
950
948
946
943
945
949
951
949
949
947
949
951
952
947
945
939
937
935
928
925
914
907
903
902
904
917
937
969
1007
1043
1069
1081
1098
1128
1170
1216
1259
1297
1324
1335
1321
1293
1252
1202
1151
1090
1030
992
967
945
935
932
932
934
933
931
930
927
930
929
929
928
926
925
926
926
927
926
925
921
923
923
925
922
919
918
916
919
921
917
916
912
914
912
915
913
909
909
909
908
909
909
905
903
903
904
904
905
901
899
899
902
903
900
898
899
900
900
903
903
901
900
905
906
908
909
907
909
912
914
914
918
919
919
921
923
928
926
929
929
932
937
940
941
940
940
943
948
950
952
955
956
959
962
966
964
964
966
970
976
977
980
981
983
988
994
994
995
995
994
996
1000
999
996
996
994
994
998
1003
1004
1005
1002
1005
1007
1008
1006
1002
999
1000
1001
1002
999
999
1000
1000
1000
996
993
982
976
969
967
966
956
952
946
947
947
951
947
947
941
942
945
946
942
943
942
945
946
946
945
944
941
943
945
948
946
945
942
945
947
946
945
944
944
946
947
950
951
948
947
950
952
954
952
953
950
949
948
946
944
942
944
957
981
1010
1036
1061
1080
1095
1109
1130
1158
1179
1199
1218
1238
1252
1258
1256
1254
1243
1235
1218
1188
1157
1128
1111
1091
1068
1038
1006
973
945
913
887
859
840
824
816
811
812
808
809
808
811
811
816
822
829
836
845
852
856
860
859
865
873
878
883
886
889
888
892
895
895
893
892
887
889
889
889
888
886
885
885
890
886
886
883
883
885
885
884
883
882
882
882
887
888
890
888
888
890
894
896
896
892
896
901
905
908
908
908
912
916
923
925
926
930
933
935
944
945
950
950
951
958
965
965
968
972
973
977
980
982
982
983
985
988
992
996
999
1001
1001
1003
1007
1010
1010
1008
1007
1010
1007
1007
1005
1003
1001
1003
1008
1011
1009
1006
1002
1003
1006
1006
1002
998
995
997
995
997
994
992
989
984
979
973
966
961
951
948
943
937
934
931
928
928
930
930
928
925
923
924
924
925
923
919
918
921
925
923
924
921
919
922
925
926
924
924
922
923
925
930
928
926
926
929
931
933
931
929
927
928
933
931
929
927
931
947
976
1007
1032
1053
1066
1076
1091
1110
1134
1152
1171
1190
1200
1201
1196
1190
1181
1168
1149
1122
1101
1083
1062
1039
1015
985
949
917
888
864
842
828
819
813
810
809
816
818
816
818
822
832
839
849
854
856
858
864
870
878
881
881
883
886
889
890
891
891
891
891
893
890
889
889
889
890
891
891
890
888
887
888
890
889
888
888
889
890
891
893
890
890
890
890
895
898
901
899
900
905
907
910
912
913
913
917
922
925
928
927
930
935
938
944
946
946
946
953
955
960
960
962
964
968
971
976
977
976
977
980
982
984
984
986
985
986
989
991
991
994
994
1000
1001
1002
1001
1002
1000
1001
1001
1003
999
996
993
996
999
1000
1001
1001
1001
1001
1002
999
1000
998
994
994
995
995
993
991
992
995
995
991
985
977
969
966
963
960
953
948
940
937
939
941
940
938
932
933
934
933
932
932
931
934
933
935
933
932
930
932
935
937
934
932
932
932
936
938
936
935
933
934
941
940
939
938
937
941
941
944
942
941
938
935
933
934
933
938
956
982
1011
1033
1050
1058
1067
1089
1115
1142
1163
1181
1194
1204
1208
1210
1204
1196
1180
1159
1137
1120
1102
1083
1055
1026
999
967
935
905
877
861
850
841
833
827
825
828
830
834
836
840
847
856
864
870
872
874
881
887
892
895
899
900
898
900
902
906
902
903
902
903
902
901
901
899
896
898
899
901
900
897
895
899
899
900
900
900
897
901
905
908
906
905
907
910
915
917
918
920
919
926
929
933
936
938
937
942
948
950
954
955
955
963
966
968
970
972
975
983
984
990
987
991
992
997
1000
1000
1002
1003
1004
1006
1010
1012
1016
1016
1018
1017
1019
1023
1025
1021
1018
1020
1019
1016
1019
1018
1020
1023
1025
1025
1022
1018
1016
1013
1014
1014
1010
1007
1007
1007
1008
1007
1008
1004
998
1002
993
988
980
974
966
962
958
954
951
949
945
946
946
945
942
941
939
941
942
942
938
939
939
940
940
941
940
939
938
942
941
942
942
940
938
939
942
944
943
942
943
942
943
946
944
944
943
947
951
951
947
942
941
939
936
937
937
946
961
990
1018
1039
1053
1062
1075
1100
1127
1155
1176
1196
1209
1222
1230
1233
1229
1221
1209
1186
1163
1143
1124
1103
1077
1050
1024
992
958
924
894
872
860
849
839
833
827
830
833
834
831
832
837
848
858
862
868
871
873
880
886
892
893
898
898
901
903
905
907
904
903
903
905
905
902
903
902
902
901
901
900
897
895
899
899
899
900
896
897
898
902
901
901
900
903
904
906
908
911
909
909
913
917
921
923
923
925
927
933
938
939
943
943
951
953
956
960
960
962
969
975
975
979
982
981
985
989
992
992
992
993
999
998
1004
1002
1005
1004
1008
1013
1017
1017
1016
1016
1019
1021
1022
1021
1015
1015
1013
1013
1018
1015
1016
1018
1019
1022
1019
1016
1014
1012
1011
1011
1010
1007
1003
1003
1005
1006
1005
1005
1000
995
994
987
981
972
965
961
956
953
951
948
942
940
940
944
942
940
938
938
939
940
943
941
939
937
937
940
941
940
938
938
939
940
942
943
940
940
943
944
944
945
942
945
942
946
947
947
946
946
948
950
950
949
946
942
939
937
935
934
937
948
969
996
1020
1043
1058
1068
1087
1112
1140
1165
1187
1206
1226
1241
1245
1249
1247
1240
1228
1213
1185
1158
1137
1117
1097
1074
1044
1011
977
940
911
890
870
855
842
832
827
825
826
826
828
826
827
830
837
844
850
857
862
866
871
873
877
883
888
894
898
895
898
898
902
905
907
903
904
899
901
902
902
901
899
900
900
899
900
900
894
895
897
899
899
898
897
896
898
899
901
899
899
899
902
905
904
906
908
909
912
915
918
919
920
921
925
931
933
934
937
939
945
949
952
958
957
959
965
969
971
973
975
978
983
987
989
993
991
994
999
1005
1005
1004
1004
1003
1009
1012
1012
1016
1017
1017
1021
1023
1022
1022
1020
1019
1020
1020
1016
1017
1016
1020
1023
1024
1024
1022
1020
1016
1014
1012
1011
1008
1006
1002
1005
1005
1003
1004
999
996
993
989
978
972
966
959
956
953
947
946
944
939
941
940
941
936
937
934
937
938
937
936
937
934
936
940
940
939
938
937
940
940
941
941
941
941
939
943
943
942
941
939
941
946
947
945
944
943
946
950
949
947
941
936
938
939
940
947
962
987
1016
1044
1065
1082
1094
1107
1131
1155
1179
1200
1219
1239
1255
1265
1267
1264
1255
1241
1228
1205
1174
1143
1118
1094
1073
1044
1012
975
941
909
883
862
844
832
819
814
816
817
820
821
821
819
825
832
839
848
853
855
859
869
868
871
874
882
885
889
891
896
894
894
897
898
896
896
895
896
898
897
897
897
894
891
889
891
893
890
888
887
887
892
890
888
888
887
890
890
890
892
890
890
894
896
896
899
897
899
901
904
909
909
912
913
918
918
921
925
929
925
931
934
938
941
941
945
950
954
957
956
959
961
967
971
974
975
976
978
982
986
988
988
990
990
993
998
997
997
996
998
999
1003
1004
1004
1005
1008
1008
1011
1014
1013
1008
1009
1010
1012
1012
1005
1004
1001
1002
1005
1008
1010
1010
1008
1010
1011
1011
1007
1002
999
997
1001
999
998
995
993
994
996
995
993
987
983
983
978
971
966
958
953
950
946
945
943
937
937
936
935
936
931
932
930
932
937
936
935
934
933
935
936
937
937
935
936
934
937
939
937
936
936
937
941
939
939
939
941
942
942
943
944
942
943
946
948
947
945
940
937
937
941
944
951
967
992
1023
1049
1072
1087
1095
1104
1127
1150
1169
1190
1209
1225
1236
1240
1237
1233
1224
1213
1196
1175
1148
1124
1103
1082
1060
1034
1000
965
933
905
880
859
846
835
824
823
820
824
825
828
824
826
833
840
849
856
859
860
868
871
876
879
884
887
892
897
896
899
898
901
901
903
902
901
900
899
898
902
900
900
894
892
896
896
894
895
894
893
893
896
895
896
894
893
897
898
899
895
895
894
898
901
904
904
903
905
908
911
914
915
917
918
921
924
929
932
932
936
940
944
949
950
952
954
957
964
967
969
968
971
977
982
983
983
984
986
991
994
997
997
995
998
999
1002
1001
1002
1001
1001
1003
1007
1007
1006
1007
1008
1010
1012
1013
1014
1010
1008
1012
1013
1014
1010
1006
1004
1005
1007
1009
1008
1008
1009
1011
1014
1011
1012
1008
1007
1006
1005
1003
1003
999
996
999
1001
1003
1000
1000
992
992
991
984
975
969
963
961
957
952
948
943
940
941
942
941
940
937
937
938
938
939
937
935
938
938
939
940
937
933
935
938
939
939
940
940
941
942
944
944
943
940
939
940
944
945
944
944
943
946
949
950
947
946
947
948
946
942
940
936
938
940
955
972
993
1014
1035
1055
1069
1077
1095
1120
1144
1172
1192
1208
1221
1226
1229
1226
1226
1215
1194
1164
1140
1122
1107
1082
1052
1023
989
955
927
899
874
860
849
843
841
836
839
839
837
839
839
847
851
856
861
869
876
879
883
882
889
894
900
905
904
903
905
907
908
912
908
906
905
906
909
906
904
901
902
902
905
904
901
900
898
900
901
900
900
898
899
902
904
905
905
905
905
909
913
912
917
914
919
921
925
927
928
929
932
937
942
945
947
945
952
956
962
965
968
968
971
977
982
985
985
985
988
994
996
998
998
999
999
1002
1008
1006
1007
1004
1005
1008
1011
1011
1009
1010
1009
1014
1017
1017
1019
1015
1015
1016
1018
1017
1016
1014
1014
1018
1022
1022
1020
1019
1018
1018
1020
1019
1010
1008
1007
1009
1012
1013
1010
1007
1005
1003
999
994
985
980
972
967
964
958
954
950
948
947
950
949
945
944
943
944
946
945
945
943
943
944
946
947
945
944
945
949
949
949
947
948
946
948
952
951
951
949
949
952
952
951
952
953
952
954
957
956
955
954
948
945
944
943
942
950
966
994
1021
1047
1063
1074
1088
1114
1144
1171
1192
1211
1230
1244
1255
1257
1255
1248
1236
1220
1193
1168
1146
1126
1104
1080
1050
1017
981
946
912
889
872
859
846
839
835
836
839
840
840
838
838
848
857
867
870
873
876
883
889
893
896
898
900
903
909
910
909
907
907
908
911
906
907
905
903
908
908
908
905
904
902
904
903
903
902
901
900
903
904
903
903
899
900
901
907
908
907
907
908
913
917
919
918
919
922
928
930
932
936
938
942
946
952
951
957
958
961
968
971
974
975
976
979
985
987
992
994
995
996
1001
1003
1000
1002
1003
1002
1009
1010
1010
1009
1011
1009
1010
1010
1011
1014
1014
1015
1018
1019
1018
1014
1012
1012
1015
1017
1016
1016
1016
1018
1019
1021
1019
1016
1013
1008
1007
1009
1008
1006
1003
1004
1005
1005
1001
996
986
978
974
969
963
958
952
946
945
947
948
945
943
941
943
943
945
945
942
941
943
945
947
945
944
944
943
946
945
946
943
943
948
950
948
947
948
946
951
952
954
951
951
953
955
958
956
955
949
947
945
945
948
955
973
999
1029
1057
1076
1091
1108
1136
1168
1196
1221
1238
1251
1259
1266
1265
1258
1244
1218
1185
1156
1134
1112
1082
1047
1008
972
941
908
880
862
849
843
836
834
833
833
833
835
837
841
851
857
863
869
878
880
884
890
893
902
906
909
907
908
909
911
914
913
909
907
906
907
911
909
906
905
902
903
904
905
903
900
899
901
904
901
901
898
899
903
907
908
906
902
905
911
914
913
914
916
919
921
926
932
931
936
940
944
950
953
952
956
960
963
968
969
972
976
976
983
986
989
990
989
994
998
1002
1003
1005
1004
1004
1007
1013
1013
1013
1011
1009
1012
1016
1015
1014
1013
1012
1016
1017
1022
1020
1019
1016
1020
1022
1020
1018
1018
1014
1019
1022
1020
1020
1021
1020
1020
1025
1017
1015
1012
1008
1010
1012
1011
1009
1007
1007
1007
1006
1001
993
987
978
975
973
967
961
957
952
954
953
953
949
948
946
948
951
950
949
948
948
951
952
950
952
949
948
951
955
953
952
951
951
953
954
955
955
954
953
957
959
959
958
959
957
960
963
963
961
959
960
959
959
955
951
949
952
966
990
1016
1040
1061
1080
1097
1117
1140
1168
1192
1217
1241
1263
1275
1280
1280
1275
1267
1252
1222
1189
1162
1138
1116
1092
1056
1019
981
946
917
894
871
858
844
837
836
838
840
839
836
839
845
856
864
869
871
878
881
888
892
895
901
902
910
911
912
915
917
915
915
916
914
912
910
911
911
915
915
914
912
907
909
911
910
909
907
906
908
910
910
909
906
905
908
913
912
912
913
910
918
923
922
925
924
925
930
936
937
937
940
941
948
953
955
957
959
963
966
972
974
979
980
981
988
991
993
995
995
999
1004
1005
1005
1008
1010
1011
1015
1018
1019
1018
1017
1017
1022
1021
1019
1021
1020
1020
1023
1025
1024
1024
1024
1024
1027
1028
1023
1024
1022
1020
1021
1023
1022
1021
1018
1020
1022
1026
1026
1024
1021
1019
1020
1020
1017
1015
1013
1011
1012
1016
1014
1013
1009
1007
1005
1004
999
990
984
980
979
977
971
965
961
960
959
960
959
957
955
956
954
959
958
955
956
956
956
957
958
955
955
955
958
960
959
960
959
957
961
964
963
966
962
963
965
967
965
966
964
965
969
969
970
969
970
966
968
967
963
961
963
969
992
1022
1052
1076
1098
1113
1128
1148
1171
1197
1220
1242
1267
1287
1297
1300
1293
1286
1272
1254
1220
1188
1161
1135
1111
1083
1044
1005
966
932
904
881
862
847
837
835
837
840
842
841
842
844
855
866
872
877
881
885
887
893
899
907
908
913
916
918
918
919
918
916
919
920
918
917
914
914
916
915
912
913
910
907
909
911
912
908
909
907
910
912
910
909
908
910
913
917
917
921
919
919
925
928
932
932
933
936
941
945
949
952
955
956
960
967
969
971
973
975
984
987
990
992
994
998
1001
1008
1011
1009
1010
1011
1013
1018
1019
1019
1017
1018
1021
1021
1020
1019
1016
1015
1018
1020
1019
1019
1021
1021
1022
1025
1023
1019
1019
1017
1016
1020
1017
1017
1018
1023
1023
1023
1023
1022
1019
1017
1014
1015
1014
1014
1012
1009
1014
1016
1014
1010
1007
1001
997
995
988
980
978
972
966
970
963
960
957
956
959
959
959
956
955
955
957
961
956
956
955
954
959
961
960
958
958
957
959
962
960
959
960
958
961
964
965
963
960
960
964
968
966
964
967
968
969
970
970
966
962
962
964
967
974
991
1015
1042
1069
1093
1107
1117
1131
1152
1179
1202
1221
1238
1253
1260
1266
1268
1268
1256
1247
1226
1200
1175
1151
1130
1108
1084
1056
1024
990
959
930
905
885
872
860
850
844
846
847
850
852
850
852
859
868
879
884
886
889
893
895
903
908
912
915
915
922
921
921
921
918
918
919
922
921
919
917
915
916
918
917
915
915
914
916
918
917
915
915
915
917
917
916
915
914
914
919
923
922
921
922
924
924
930
932
933
936
938
941
946
949
952
953
954
961
966
969
970
971
976
980
986
987
992
992
997
999
1003
1004
1006
1007
1009
1013
1017
1017
1017
1018
1016
1018
1022
1020
1021
1015
1016
1018
1022
1019
1021
1018
1019
1024
1025
1025
1023
1021
1021
1023
1022
1022
1022
1021
1023
1027
1028
1030
1025
1025
1023
1024
1024
1019
1017
1013
1012
1016
1017
1017
1016
1012
1009
1004
1003
996
987
981
976
975
971
965
963
960
957
957
960
958
956
954
953
957
958
959
958
955
958
961
961
959
957
958
957
958
960
959
959
957
956
961
962
962
963
960
961
963
968
967
966
965
966
968
968
965
960
954
954
955
959
970
989
1014
1042
1064
1080
1089
1107
1133
1161
1187
1212
1227
1239
1247
1251
1252
1252
1243
1222
1195
1167
1147
1133
1113
1085
1056
1024
994
967
939
910
890
874
867
860
855
850
850
851
853
856
855
860
865
874
881
886
890
892
895
899
906
913
918
919
919
920
923
926
927
924
921
921
920
922
923
919
917
917
918
918
919
917
913
911
913
915
918
914
914
913
912
918
916
915
913
915
918
922
922
921
922
925
928
929
933
932
933
936
936
945
947
949
951
951
957
963
965
965
968
968
973
979
985
985
986
985
990
997
1000
1000
1002
1003
1006
1008
1009
1009
1010
1012
1013
1014
1016
1015
1016
1015
1017
1017
1018
1016
1014
1013
1017
1018
1020
1019
1020
1020
1020
1022
1021
1019
1014
1015
1016
1018
1020
1018
1017
1019
1021
1023
1019
1016
1016
1014
1011
1010
1011
1011
1008
1007
1008
1012
1010
1005
1001
995
991
986
984
977
970
964
963
962
958
955
953
951
952
954
953
952
953
952
953
955
955
952
953
953
955
958
956
955
954
954
956
956
955
957
956
957
958
959
959
960
958
960
962
965
964
965
963
964
965
967
968
965
961
960
954
953
954
957
964
983
1011
1035
1058
1073
1083
1100
1126
1153
1179
1198
1216
1235
1249
1259
1264
1259
1257
1244
1230
1203
1175
1155
1134
1113
1090
1064
1032
995
961
930
908
890
876
865
857
850
851
851
853
851
849
851
856
862
872
877
880
884
890
895
898
899
906
910
916
920
923
921
923
921
924
925
924
922
921
918
920
922
923
919
917
916
919
918
918
914
913
914
916
916
915
914
913
913
913
916
914
915
914
917
922
923
925
922
924
926
928
933
934
932
934
938
941
945
946
947
950
954
958
964
967
966
967
972
975
980
983
985
986
987
992
995
1000
1000
1003
1002
1006
1010
1011
1012
1012
1012
1015
1019
1022
1019
1019
1018
1020
1021
1021
1019
1017
1017
1018
1020
1017
1018
1016
1017
1020
1023
1022
1020
1017
1019
1020
1020
1018
1017
1015
1017
1018
1022
1020
1024
1020
1018
1021
1023
1022
1017
1012
1011
1011
1012
1011
1011
1009
1010
1012
1014
1009
1006
998
991
987
982
980
974
966
963
959
958
955
954
953
952
954
954
954
952
951
951
952
955
957
955
955
953
957
960
959
958
954
954
957
960
959
958
955
957
958
962
961
960
958
959
962
964
965
962
962
961
964
966
965
960
952
950
954
961
978
998
1027
1056
1079
1094
1109
1134
1159
1190
1213
1239
1255
1263
1265
1268
1264
1258
1239
1211
1174
1152
1135
1111
1085
1052
1014
980
949
924
901
879
864
854
850
848
847
847
847
848
851
854
858
865
870
876
883
889
893
894
898
903
909
913
915
914
915
917
917
917
920
917
914
915
915
916
914
912
908
910
910
913
912
910
909
909
910
911
909
907
906
908
910
912
911
910
908
910
912
916
918
916
915
919
923
927
928
928
927
931
936
941
942
945
946
949
952
956
961
964
965
968
972
975
980
981
981
985
989
990
994
996
999
1000
1003
1005
1006
1006
1006
1009
1008
1010
1013
1011
1008
1010
1011
1013
1014
1013
1011
1009
1011
1014
1013
1012
1010
1013
1014
1014
1015
1015
1007
1009
1010
1011
1011
1009
1008
1009
1013
1016
1015
1011
1009
1010
1011
1011
1007
1002
1000
1002
1001
1003
1003
1001
996
997
997
997
994
989
983
976
972
969
963
958
951
950
950
949
949
946
945
939
943
946
945
942
943
945
945
947
947
944
942
942
945
946
946
945
942
944
949
949
948
944
946
945
947
949
950
949
946
947
951
953
952
951
950
951
953
957
955
956
952
950
949
948
944
942
941
949
966
991
1019
1041
1057
1073
1089
1105
1131
1156
1179
1204
1227
1248
1262
1269
1271
1267
1264
1253
1233
1201
1169
1143
1123
1103
1073
1040
1002
966
935
909
885
863
847
836
831
828
829
827
830
829
830
836
843
848
855
863
867
874
876
883
884
889
895
902
902
901
900
901
903
904
903
900
898
899
901
903
902
900
897
896
896
899
897
896
893
891
892
893
893
892
891
892
894
894
894
891
891
897
899
900
902
903
902
906
910
914
916
916
917
922
926
932
932
937
936
939
944
947
954
952
953
957
960
966
970
970
972
972
980
984
985
984
985
988
992
994
997
995
994
996
1000
1001
1002
1001
998
999
999
1000
1001
1000
999
998
1000
1001
1002
1001
999
1002
1003
1002
1001
1002
999
996
1001
1001
1002
1000
997
998
1002
1003
1003
1000
997
996
997
996
994
992
991
991
993
994
995
992
987
987
984
983
977
971
963
960
957
954
950
942
939
936
938
939
938
935
931
932
934
937
936
934
932
931
936
936
936
934
935
934
936
939
936
933
933
936
938
940
941
940
939
940
940
942
944
942
941
942
946
945
946
945
942
942
946
947
944
940
931
931
933
935
945
960
984
1010
1035
1056
1070
1084
1104
1130
1156
1181
1205
1223
1239
1256
1262
1267
1267
1260
1248
1230
1203
1173
1148
1125
1099
1074
1044
1012
975
936
903
878
856
843
832
822
819
816
819
822
823
820
821
825
835
846
854
858
859
864
869
876
881
882
884
888
891
894
897
895
895
891
893
891
892
889
888
887
890
889
888
887
883
884
885
888
885
885
881
882
884
881
884
882
879
880
885
885
888
887
887
890
894
898
899
900
899
902
908
910
913
916
915
920
923
929
933
934
936
941
946
950
951
955
955
961
966
969
972
974
976
979
983
985
987
987
986
990
992
992
993
991
990
992
992
992
992
990
986
987
990
991
991
993
991
993
993
992
993
989
986
988
990
994
993
992
990
992
992
994
993
988
981
980
983
982
983
981
982
982
981
979
975
970
958
955
949
947
942
934
929
928
930
932
932
927
926
925
928
930
930
927
927
926
928
932
930
927
927
927
931
930
928
931
929
929
932
934
935
935
932
934
935
938
938
939
938
937
938
942
943
940
935
937
935
933
932
931
934
949
974
998
1027
1052
1072
1087
1107
1133
1161
1190
1211
1235
1254
1267
1271
1270
1260
1249
1228
1199
1163
1132
1103
1078
1049
1017
979
942
909
885
860
839
824
813
807
805
809
812
814
812
811
818
828
838
845
848
852
855
862
866
870
874
877
880
884
886
890
887
887
887
886
889
887
886
882
884
882
885
886
881
878
881
881
882
882
880
875
878
878
879
879
878
878
880
883
884
883
882
883
885
889
893
893
894
894
897
901
906
909
912
911
913
920
926
928
932
933
937
943
948
950
953
953
956
961
967
968
971
970
973
975
980
982
982
982
983
986
990
989
987
986
987
990
989
989
987
985
986
988
989
987
987
987
987
989
990
989
989
985
984
986
987
988
988
988
990
990
991
986
988
984
982
981
985
985
984
980
979
979
983
980
975
965
960
955
951
947
940
936
935
937
938
937
933
929
929
932
936
935
932
930
933
933
935
935
934
933
933
937
939
938
934
935
935
938
941
942
940
937
940
942
944
944
941
940
944
947
948
949
945
943
939
941
943
944
959
981
1016
1047
1073
1087
1097
1114
1140
1169
1193
1215
1231
1238
1237
1235
1230
1215
1191
1158
1129
1108
1088
1063
1033
996
957
929
901
874
855
838
830
825
827
827
827
826
827
835
842
849
855
859
866
871
875
881
882
886
893
896
902
901
900
898
900
902
904
901
901
898
898
899
898
897
895
894
894
894
894
895
894
891
892
895
896
898
895
893
894
899
902
902
901
900
904
905
912
913
914
913
916
921
923
926
929
932
935
941
945
947
949
951
956
959
963
964
965
968
972
976
980
981
983
982
983
990
993
996
994
994
995
995
1000
1000
998
997
998
999
999
999
996
994
995
998
998
998
996
998
998
1000
1000
999
999
996
996
997
999
1001
1000
999
1002
1005
1007
1006
1003
999
998
1001
1000
998
996
994
994
997
999
997
995
991
988
982
978
973
967
961
956
954
952
948
947
944
947
947
947
943
945
944
944
945
946
946
944
943
947
946
948
950
949
948
947
950
952
951
948
948
951
952
954
952
951
952
953
952
956
956
955
953
956
957
958
958
955
951
949
948
948
947
952
965
993
1022
1044
1064
1073
1083
1104
1130
1158
1180
1199
1215
1229
1239
1242
1242
1235
1221
1201
1175
1148
1129
1109
1085
1055
1029
998
967
935
905
884
869
862
856
846
842
842
848
850
849
851
851
862
873
881
885
887
887
891
899
904
909
909
910
914
916
920
920
918
917
917
919
918
917
914
910
913
915
913
912
912
909
910
912
911
912
908
908
909
911
913
914
911
911
911
915
919
918
916
915
919
921
926
927
927
928
933
937
939
942
943
944
949
952
956
958
960
961
967
972
975
977
979
982
984
989
993
996
997
996
1000
1003
1005
1011
1010
1010
1010
1014
1016
1015
1013
1009
1014
1017
1018
1016
1015
1011
1011
1014
1014
1013
1013
1013
1012
1017
1017
1018
1018
1017
1014
1018
1017
1017
1016
1014
1017
1020
1023
1023
1020
1017
1019
1018
1019
1016
1012
1010
1009
1013
1014
1014
1011
1011
1009
1009
1008
1002
996
988
987
983
982
973
971
965
962
963
962
958
959
957
956
957
960
957
958
955
959
961
962
962
958
956
960
961
963
964
961
958
960
962
965
963
963
960
962
963
966
964
962
961
959
962
960
956
952
947
948
949
945
942
936
926
919
916
923
931
949
975
1009
1035
1067
1098
1132
1164
1201
1238
1282
1308
1317
1303
1281
1252
1208
1153
1104
1070
1049
1024
999
971
952
943
949
954
953
953
951
949
952
952
955
953
951
951
950
952
951
952
950
949
951
952
952
952
950
946
948
948
952
949
947
945
945
946
948
945
944
942
944
943
944
943
942
939
938
939
941
941
937
934
938
939
941
938
938
935
936
940
941
942
941
940
944
947
950
951
948
950
952
955
958
958
960
960
961
966
970
972
973
972
976
980
982
984
985
985
988
990
993
995
997
995
996
1002
1004
1006
1004
1003
1006
1007
1010
1012
1010
1009
1010
1011
1011
1010
1010
1009
1011
1011
1012
1012
1011
1008
1009
1012
1012
1016
1016
1014
1016
1019
1020
1019
1018
1018
1020
1021
1022
1026
1026
1026
1030
1031
1033
1031
1028
1025
1025
1027
1029
1029
1029
1028
1030
1031
1032
1028
1020
1013
1010
1005
999
996
990
984
983
980
984
983
979
974
978
979
980
981
979
979
979
982
981
982
981
980
979
982
983
983
981
981
981
984
986
985
985
983
982
985
988
986
985
986
985
989
990
988
989
986
988
988
987
984
979
974
975
976
982
992
1004
1027
1051
1075
1097
1108
1121
1135
1160
1189
1217
1241
1259
1275
1288
1296
1302
1299
1289
1274
1256
1229
1203
1180
1159
1135
1112
1083
1054
1024
990
956
930
908
891
879
868
859
859
860
863
863
863
864
867
877
884
890
895
898
904
909
914
918
918
923
928
931
934
935
934
933
935
937
937
935
934
929
932
931
932
932
932
930
930
932
932
931
930
929
929
930
931
929
928
925
926
929
932
931
930
930
933
938
938
940
944
944
947
951
954
954
959
961
965
971
975
977
980
980
984
991
994
996
997
1001
1005
1012
1014
1016
1018
1017
1020
1026
1031
1030
1034
1032
1035
1037
1038
1038
1039
1039
1040
1041
1042
1043
1039
1039
1040
1041
1041
1039
1038
1037
1042
1046
1045
1048
1042
1039
1039
1042
1044
1043
1040
1039
1043
1047
1047
1045
1044
1045
1045
1045
1044
1041
1035
1036
1036
1037
1038
1035
1035
1034
1031
1029
1026
1019
1010
1001
1000
995
993
988
983
979
980
982
981
981
979
977
980
979
979
979
979
977
979
982
983
982
983
979
983
983
985
985
982
979
982
984
987
983
983
983
984
988
985
989
987
988
990
991
995
993
989
988
987
982
980
979
981
986
1009
1034
1063
1084
1103
1116
1130
1150
1177
1205
1229
1250
1272
1294
1304
1306
1304
1298
1289
1273
1240
1208
1174
1147
1122
1091
1054
1014
978
948
924
905
891
880
873
868
871
874
875
876
872
875
880
892
901
906
910
914
917
922
928
932
934
938
943
946
946
950
947
946
947
948
949
948
947
944
943
945
943
945
942
940
942
941
941
941
939
936
940
941
941
941
937
938
937
940
941
940
938
940
942
945
947
947
946
948
951
954
956
959
959
961
967
970
973
977
979
979
983
989
991
995
998
998
1002
1006
1010
1012
1012
1015
1022
1024
1027
1027
1028
1027
1031
1032
1036
1033
1038
1035
1039
1042
1045
1042
1043
1042
1042
1044
1045
1044
1042
1039
1042
1042
1042
1042
1039
1039
1039
1043
1045
1044
1045
1043
1044
1045
1043
1042
1042
1040
1042
1043
1045
1045
1043
1045
1041
1045
1048
1048
1043
1041
1038
1038
1040
1039
1037
1038
1039
1041
1042
1041
1036
1029
1026
1022
1019
1014
1008
1003
1001
1000
997
996
995
992
991
991
992
990
988
989
989
989
992
991
992
990
990
996
995
994
993
990
992
995
994
995
992
991
994
996
997
1001
999
998
1001
1001
1002
1003
1003
997
999
1000
1005
1006
1000
997
998
994
992
990
990
995
1016
1042
1070
1096
1113
1125
1142
1163
1189
1219
1242
1263
1287
1304
1314
1317
1314
1308
1297
1282
1253
1222
1194
1170
1149
1122
1095
1061
1025
990
965
943
921
902
888
881
877
878
879
880
882
880
883
886
896
905
911
911
918
925
927
931
934
935
938
946
948
949
951
949
950
953
953
953
951
946
947
949
950
949
945
942
942
943
944
946
942
942
941
940
942
939
938
936
936
938
940
939
938
936
938
941
944
945
943
943
946
949
951
953
955
952
958
961
965
967
966
967
972
979
978
981
983
984
989
993
998
999
1003
1004
1007
1014
1017
1017
1021
1022
1022
1026
1031
1034
1033
1033
1037
1040
1043
1043
1043
1040
1044
1044
1046
1046
1045
1041
1042
1044
1041
1043
1039
1038
1038
1039
1043
1041
1043
1042
1043
1047
1046
1044
1040
1040
1040
1042
1042
1042
1042
1041
1046
1049
1050
1047
1046
1041
1044
1045
1044
1040
1038
1035
1036
1037
1038
1037
1036
1035
1031
1029
1028
1023
1016
1009
1005
1004
999
994
990
988
985
985
986
987
985
983
982
984
986
986
985
982
984
984
986
986
986
981
985
988
990
987
985
984
985
987
988
987
988
986
986
988
991
992
991
990
992
994
995
996
994
993
990
993
993
988
983
981
985
998
1018
1043
1066
1089
1111
1127
1144
1169
1196
1223
1247
1276
1294
1308
1311
1309
1300
1289
1265
1228
1196
1166
1145
1117
1088
1049
1008
974
946
922
902
888
876
870
868
869
872
874
871
871
876
886
895
903
906
911
912
920
924
929
932
936
939
943
942
944
943
941
941
942
943
943
940
938
938
938
939
937
935
934
935
936
935
934
931
930
930
931
930
930
930
927
928
932
931
933
934
932
934
938
941
944
945
945
948
954
957
959
959
962
966
970
973
974
977
978
983
989
992
994
997
996
998
1004
1007
1009
1012
1012
1014
1017
1021
1023
1023
1024
1025
1030
1032
1031
1032
1030
1030
1036
1035
1033
1030
1031
1029
1032
1032
1034
1030
1026
1026
1030
1033
1030
1031
1028
1031
1031
1034
1032
1029
1026
1024
1027
1029
1031
1029
1025
1029
1031
1033
1036
1033
1030
1032
1031
1031
1030
1026
1025
1027
1027
1026
1027
1025
1023
1027
1029
1028
1023
1017
1011
1005
1003
998
992
987
981
982
982
980
980
976
978
977
975
978
978
978
974
976
979
981
979
981
976
977
978
980
980
978
978
980
981
982
984
982
979
982
983
985
984
981
979
982
983
984
984
984
984
986
984
987
988
986
984
985
982
982
977
976
980
994
1015
1040
1063
1088
1106
1123
1143
1167
1191
1219
1241
1264
1289
1305
1314
1311
1309
1303
1291
1270
1234
1199
1166
1142
1118
1092
1057
1018
982
953
925
903
885
871
861
854
855
859
863
861
861
864
873
882
888
893
897
901
909
913
918
921
922
927
931
935
933
934
933
933
933
935
932
930
926
931
931
931
929
928
925
925
927
927
925
925
922
922
923
925
926
924
924
922
926
930
929
927
927
928
929
935
936
934
935
939
940
945
948
950
952
955
960
966
967
971
974
979
984
986
990
989
991
997
1001
1007
1005
1009
1009
1011
1014
1018
1018
1021
1020
1024
1027
1028
1026
1027
1024
1025
1026
1027
1025
1025
1022
1022
1024
1024
1024
1019
1017
1019
1022
1022
1022
1021
1021
1023
1023
1024
1022
1022
1018
1020
1020
1022
1023
1022
1023
1023
1024
1027
1026
1024
1020
1022
1020
1019
1018
1017
1015
1014
1017
1018
1022
1019
1014
1010
1009
1005
999
994
988
986
980
979
976
972
969
971
971
972
970
968
968
968
969
971
969
968
966
966
970
970
968
969
968
968
970
970
970
974
972
969
972
973
975
973
972
973
976
978
978
976
976
978
980
982
984
981
979
979
984
985
980
975
970
970
972
979
991
1013
1035
1065
1089
1109
1120
1132
1150
1177
1203
1228
1246
1266
1277
1278
1282
1279
1269
1251
1223
1194
1169
1148
1130
1109
1081
1053
1022
991
962
936
910
890
877
872
866
862
857
860
863
864
864
869
874
882
890
896
901
904
906
911
916
922
925
928
927
930
932
936
934
935
932
933
936
935
933
931
929
928
929
930
929
928
925
924
924
928
926
924
923
925
926
926
927
925
925
927
929
933
929
932
933
937
938
946
945
946
945
950
954
957
960
960
962
967
971
975
979
982
980
985
990
995
997
1000
1003
1003
1008
1012
1014
1015
1015
1020
1022
1024
1024
1026
1022
1023
1028
1030
1027
1025
1022
1021
1025
1024
1025
1020
1017
1019
1019
1021
1023
1022
1019
1023
1024
1024
1023
1022
1019
1020
1024
1028
1027
1027
1027
1027
1030
1031
1030
1026
1023
1024
1025
1026
1024
1022
1020
1022
1022
1022
1018
1012
1005
1000
996
992
988
980
977
975
973
975
975
972
969
969
972
975
975
973
970
971
974
975
976
973
971
975
976
978
976
974
974
973
977
977
978
976
975
974
977
979
980
976
977
979
981
982
985
983
983
980
984
979
977
972
970
973
987
1007
1031
1056
1077
1094
1110
1126
1151
1175
1199
1226
1249
1270
1280
1283
1283
1279
1273
1259
1231
1198
1169
1147
1125
1101
1067
1030
995
963
937
917
896
882
871
867
866
866
868
869
866
866
872
882
890
896
899
903
906
913
916
919
920
925
930
933
935
935
931
935
937
935
935
932
930
931
933
934
933
930
927
928
929
929
929
926
925
925
926
926
924
923
920
923
926
928
929
927
926
927
931
933
932
933
934
938
943
948
946
946
949
955
959
964
968
968
971
976
981
986
989
992
993
994
998
1004
1005
1006
1004
1009
1013
1017
1019
1019
1019
1022
1024
1027
1025
1025
1025
1027
1027
1028
1027
1025
1022
1023
1024
1023
1023
1020
1017
1019
1022
1022
1024
1023
1022
1023
1023
1023
1020
1020
1019
1019
1020
1023
1022
1024
1023
1022
1026
1027
1026
1021
1017
1017
1020
1022
1018
1020
1017
1017
1017
1015
1008
1002
995
991
991
984
979
974
971
970
971
973
971
968
966
968
969
970
971
969
967
967
970
973
972
973
969
969
973
974
974
975
972
975
976
978
976
974
974
975
978
978
978
977
977
978
979
983
980
978
972
968
968
969
970
976
991
1019
1045
1070
1091
1103
1116
1137
1168
1201
1228
1251
1270
1285
1293
1295
1288
1280
1256
1223
1191
1164
1140
1109
1079
1039
1002
971
942
913
891
876
864
861
858
857
858
858
862
867
872
878
885
894
898
904
910
910
915
920
922
928
929
930
929
930
932
933
931
927
923
922
925
925
925
922
922
922
922
921
921
919
915
917
918
919
921
919
917
915
919
922
923
922
919
922
927
930
931
931
932
932
938
943
944
945
946
950
957
961
965
967
967
972
977
983
986
986
988
992
997
1003
1005
1006
1007
1011
1015
1017
1019
1023
1020
1021
1023
1023
1022
1025
1021
1023
1026
1024
1025
1022
1019
1019
1019
1020
1021
1019
1014
1014
1017
1019
1021
1017
1020
1020
1021
1022
1023
1021
1017
1017
1022
1023
1023
1022
1023
1024
1025
1026
1025
1024
1017
1017
1017
1017
1018
1016
1014
1016
1018
1016
1018
1012
1005
1002
997
995
989
983
977
972
973
974
971
969
967
968
968
970
970
967
966
969
969
971
969
968
966
965
968
968
970
968
967
968
970
973
974
972
971
971
972
975
975
975
974
974
976
978
979
975
975
979
979
981
980
979
974
972
969
968
968
970
980
1003
1032
1058
1081
1094
1107
1122
1146
1176
1202
1223
1243
1267
1284
1293
1296
1293
1282
1268
1241
1210
1179
1153
1131
1103
1076
1044
1002
970
941
917
895
879
871
860
853
854
856
858
859
860
860
867
876
886
891
893
896
899
906
910
913
919
918
923
925
929
930
930
926
926
926
928
928
926
923
920
922
924
922
920
916
916
917
917
916
914
911
910
913
913
913
911
911
910
912
913
914
914
913
915
919
921
920
923
923
928
931
935
937
938
937
942
947
952
954
955
957
961
961
970
972
971
972
976
982
986
989
989
991
993
997
1001
1006
1003
1003
1002
1010
1010
1013
1013
1013
1013
1016
1019
1017
1016
1014
1015
1014
1017
1016
1014
1013
1010
1012
1012
1011
1009
1004
1005
1007
1010
1009
1009
1007
1009
1010
1012
1010
1007
1005
1007
1007
1011
1012
1009
1010
1012
1013
1015
1016
1013
1011
1010
1010
1010
1010
1008
1006
1005
1007
1010
1011
1006
1002
996
998
996
990
981
974
973
969
968
963
961
957
957
958
957
956
954
953
954
955
959
957
955
953
958
960
960
960
960
958
956
960
960
961
960
958
959
959
962
963
960
961
959
964
965
963
963
960
962
965
967
967
966
965
967
968
969
969
967
963
958
957
957
957
961
972
996
1023
1051
1073
1087
1101
1116
1142
1172
1200
1223
1244
1264
1279
1286
1287
1285
1277
1266
1247
1215
1184
1155
1130
1108
1081
1050
1012
973
940
911
889
874
859
849
842
839
844
846
847
847
845
853
861
870
877
879
881
885
891
895
904
906
906
908
912
914
917
916
913
915
915
917
916
913
908
908
911
911
909
910
904
905
906
909
909
905
902
903
904
907
904
903
900
899
902
903
903
904
902
902
906
910
911
915
916
917
921
923
927
926
928
930
936
942
945
945
947
951
957
961
963
965
967
970
974
979
981
980
984
984
990
993
996
996
996
997
1003
1006
1005
1004
1003
1005
1007
1008
1009
1006
1005
1006
1006
1006
1005
1004
1001
998
1002
1003
1002
999
996
997
1001
1001
1003
1003
1000
999
1000
1002
1001
997
997
998
1000
1004
1002
1005
1004
1004
1005
1005
1004
1003
996
996
997
999
999
997
997
999
1000
1004
1001
995
988
985
982
977
973
967
962
956
956
954
951
949
942
942
941
939
933
926
925
924
923
920
917
912
906
909
917
932
950
959
962
966
976
992
1016
1042
1063
1088
1108
1113
1098
1069
1031
990
940
883
840
810
786
769
760
758
755
748
740
726
715
712
711
710
707
706
706
710
717
727
736
751
765
778
791
805
821
839
861
879
901
917
925
937
947
957
965
970
971
973
979
980
985
984
983
982
989
990
990
987
986
986
990
994
994
993
991
995
993
998
998
998
998
1001
1001
1003
1006
1007
1008
1012
1016
1020
1023
1023
1023
1025
1031
1035
1038
1036
1037
1042
1045
1051
1051
1053
1052
1056
1060
1063
1068
1069
1069
1073
1076
1080
1081
1081
1079
1083
1085
1086
1091
1086
1086
1089
1089
1090
1089
1087
1086
1082
1085
1085
1082
1080
1076
1073
1073
1073
1069
1065
1061
1059
1058
1053
1053
1047
1044
1042
1042
1041
1037
1032
1027
1026
1026
1025
1022
1017
1011
1010
1013
1014
1011
1008
1005
1004
1003
1003
1000
998
993
994
993
996
996
992
988
989
990
992
989
986
983
983
986
987
986
985
982
985
986
992
993
992
992
994
993
998
998
996
995
996
999
1000
1001
1003
1002
1001
1006
1006
1004
1001
995
996
997
1002
999
997
997
997
998
999
994
987
978
974
973
969
964
959
955
953
954
957
956
952
948
949
950
952
948
948
947
947
948
950
952
949
947
947
948
948
948
947
946
947
952
953
952
951
949
948
950
950
950
952
949
951
954
956
955
955
954
954
956
957
954
948
945
942
945
952
963
983
1008
1035
1062
1085
1103
1116
1130
1159
1187
1214
1238
1259
1276
1283
1287
1286
1278
1260
1228
1192
1164
1141
1119
1089
1058
1024
993
959
931
902
876
856
845
837
830
824
821
822
826
831
831
831
831
838
846
854
864
866
869
872
876
884
885
890
890
895
899
902
902
903
901
902
902
903
901
900
898
897
898
898
898
895
890
891
892
892
891
890
888
887
890
891
891
887
886
885
887
890
889
888
890
891
893
895
894
898
898
899
904
909
909
909
909
911
917
920
922
922
925
930
935
935
938
938
944
946
951
956
959
961
962
963
969
976
978
980
979
981
984
987
992
991
992
992
997
998
999
996
995
995
997
996
998
995
993
992
993
993
993
992
989
988
991
994
993
994
992
993
994
995
993
992
989
985
988
990
993
992
990
993
996
997
997
995
990
988
989
990
988
986
983
984
986
987
988
986
980
978
975
970
964
956
952
949
948
944
939
937
932
934
936
935
935
934
933
935
935
937
935
936
933
933
935
939
938
936
936
934
936
938
938
938
937
938
940
942
940
940
940
941
941
946
945
947
944
946
946
952
951
950
948
948
948
950
944
942
937
942
953
970
997
1023
1045
1068
1083
1094
1108
1129
1152
1177
1198
1219
1236
1248
1250
1249
1246
1245
1232
1207
1175
1146
1127
1109
1088
1064
1035
999
970
940
918
894
873
856
849
843
838
832
831
833
837
839
839
841
845
852
861
869
874
878
877
879
887
892
898
900
900
902
908
911
909
909
906
904
908
906
907
905
905
904
904
907
905
902
902
901
901
903
901
900
896
896
897
899
898
896
896
895
898
900
899
900
899
902
902
907
907
909
906
908
912
916
919
921
921
925
929
933
935
938
938
942
945
950
952
955
955
958
960
967
967
968
971
972
976
981
984
982
982
985
990
993
993
994
994
997
996
1000
1000
999
996
996
998
999
999
997
992
993
995
996
993
992
990
986
987
990
990
985
987
983
983
989
991
992
989
988
991
992
991
990
988
989
992
997
997
996
997
1000
999
1001
999
999
994
994
995
999
998
997
995
995
995
995
989
981
973
971
968
964
959
954
948
949
950
951
950
949
946
944
948
950
950
948
947
948
952
953
952
950
947
949
952
953
953
949
949
949
950
952
952
951
954
952
955
957
957
955
954
952
953
961
961
958
955
957
957
956
950
947
945
950
963
986
1010
1034
1055
1073
1087
1104
1127
1154
1180
1204
1227
1248
1259
1263
1260
1259
1252
1242
1215
1180
1151
1129
1108
1087
1057
1020
985
949
922
899
876
862
850
843
841
842
842
843
840
842
845
854
865
869
873
876
882
885
890
893
896
900
903
909
909
908
907
909
910
912
911
909
905
906
905
906
907
906
903
901
903
903
901
901
900
897
898
902
899
898
897
897
899
902
899
898
897
897
899
902
904
904
905
906
910
915
915
917
919
919
926
928
930
936
936
940
943
948
952
954
954
957
963
969
971
973
975
977
983
985
987
988
987
990
994
996
998
998
999
999
1005
1005
1004
1003
1003
1004
1003
1005
1002
1003
999
1001
1000
999
1001
998
996
995
996
1000
997
996
994
998
1001
1003
1004
1001
996
996
997
998
999
997
999
998
1001
1004
1002
1002
1002
1000
1000
1000
996
995
990
993
994
996
997
994
991
990
989
988
979
971
965
959
957
956
951
947
945
943
944
944
944
941
937
938
941
943
943
944
940
940
945
947
943
941
942
943
944
950
947
945
944
945
947
950
950
950
949
950
949
954
953
952
951
952
957
956
954
953
952
952
951
950
942
943
943
955
977
1006
1032
1057
1074
1091
1110
1138
1164
1193
1220
1245
1263
1276
1278
1278
1269
1260
1240
1211
1179
1147
1124
1095
1066
1033
993
955
922
896
873
859
844
835
833
830
835
837
839
836
840
848
858
866
871
875
875
882
888
896
899
902
902
904
907
910
910
909
907
906
905
905
905
904
903
898
901
904
901
901
897
897
899
901
900
896
896
894
896
897
896
896
895
896
899
902
902
901
902
903
906
908
911
912
912
913
917
922
925
925
929
929
935
941
943
944
946
950
955
959
963
963
967
969
973
977
980
981
983
986
990
993
994
996
995
996
999
1003
1002
1002
1000
1000
1000
1003
1003
999
995
993
996
998
996
995
991
991
991
993
992
989
989
989
993
995
997
995
993
992
993
995
995
996
997
996
998
1000
1002
999
999
1000
999
998
995
991
989
989
992
994
995
993
991
990
989
990
987
981
971
966
963
964
956
953
949
945
946
950
948
947
945
943
946
950
950
947
945
943
946
947
946
945
944
943
947
947
949
946
942
947
948
949
951
949
948
948
950
956
953
951
952
952
956
960
957
957
958
956
957
959
958
953
947
944
946
948
955
971
995
1027
1056
1079
1095
1111
1133
1162
1192
1221
1247
1268
1279
1283
1285
1282
1268
1241
1205
1166
1140
1117
1088
1055
1015
972
940
911
888
865
849
838
834
833
834
833
834
834
838
846
857
865
870
876
881
888
892
895
897
901
905
908
910
909
907
906
908
909
906
905
902
900
900
902
898
898
895
894
894
895
896
894
891
891
893
897
896
893
891
893
896
897
896
898
897
902
905
906
910
911
915
915
920
927
929
931
932
933
939
947
949
949
952
954
960
966
969
969
974
975
980
986
988
989
989
991
993
997
997
1000
998
1000
1001
1007
1004
1004
1001
1001
1003
1002
1000
1000
996
993
995
995
994
991
989
987
991
993
994
994
994
992
996
997
993
994
992
993
995
998
999
999
999
997
1001
1002
999
999
995
992
994
995
994
996
991
993
994
993
990
982
976
970
965
963
959
953
949
946
947
945
946
944
940
939
941
944
943
941
941
941
939
945
946
943
944
942
944
948
948
943
943
943
945
948
946
947
945
946
947
950
950
949
949
948
950
955
952
951
949
952
955
953
955
952
951
945
942
945
945
951
969
996
1025
1053
1075
1091
1104
1129
1159
1193
1219
1244
1264
1278
1288
1291
1288
1282
1266
1237
1200
1169
1138
1110
1078
1040
997
963
928
900
872
852
841
837
831
828
830
832
832
835
835
841
852
858
865
873
875
876
882
883
891
896
899
901
899
901
905
905
904
902
899
900
902
903
900
895
898
894
897
897
895
894
890
887
890
892
891
888
886
886
888
891
889
888
886
888
892
897
898
899
899
903
908
911
916
914
917
920
925
933
933
935
940
943
948
953
955
958
960
962
968
972
976
979
978
981
985
990
990
993
991
993
994
998
998
996
995
993
996
998
997
997
992
992
991
992
994
988
986
986
988
990
988
985
986
987
988
990
988
988
985
985
987
989
991
987
989
991
993
996
997
996
993
989
990
989
990
987
990
990
992
993
993
987
983
979
973
969
961
958
950
944
943
942
940
938
935
933
935
937
938
938
936
935
936
939
942
939
938
938
940
941
941
941
942
942
944
947
946
943
944
942
943
945
946
946
945
943
942
945
949
946
946
946
948
953
950
947
943
937
941
943
953
973
999
1026
1055
1079
1097
1110
1134
1164
1195
1224
1249
1271
1288
1295
1299
1297
1286
1263
1228
1190
1158
1133
1106
1072
1035
995
957
924
896
866
845
830
823
820
820
821
820
822
825
831
837
843
851
858
865
869
873
873
876
880
886
891
896
894
894
892
894
895
896
894
895
891
891
891
891
888
887
885
886
890
889
884
885
882
884
886
887
884
882
880
883
882
883
883
884
882
882
887
889
887
888
890
890
899
901
903
903
904
910
916
917
920
922
923
930
935
936
938
940
946
952
957
961
960
963
965
969
972
974
975
976
977
981
984
986
984
986
987
987
991
989
987
987
986
987
987
985
983
984
980
977
984
981
978
975
973
977
976
978
977
976
976
982
981
982
980
979
974
978
976
977
979
979
976
979
980
982
984
982
982
983
983
980
977
977
975
979
981
983
982
979
978
978
976
973
966
960
953
953
950
945
939
935
928
930
933
932
930
928
927
930
932
930
933
930
930
932
934
932
932
929
932
933
935
937
936
935
933
937
937
937
934
936
938
938
940
942
940
940
938
939
943
941
941
941
940
942
944
942
942
939
934
932
934
936
940
953
976
1005
1037
1060
1078
1091
1102
1125
1152
1175
1194
1214
1234
1252
1264
1269
1268
1262
1256
1240
1222
1191
1160
1136
1111
1090
1070
1043
1010
972
936
913
888
864
844
830
820
816
814
816
818
817
818
820
827
831
841
846
850
859
865
867
870
873
877
882
888
890
891
891
890
891
894
896
893
891
889
889
891
889
889
884
884
887
886
883
884
882
881
884
885
884
882
881
877
880
884
884
883
881
881
886
885
887
885
882
884
888
891
894
893
896
895
898
903
906
906
908
908
913
919
922
924
924
928
929
936
939
941
941
942
947
952
955
957
959
959
964
968
973
972
975
973
979
983
987
985
985
985
987
989
988
987
984
983
985
987
988
985
981
979
979
982
982
981
977
976
977
977
977
975
972
972
973
976
976
974
975
976
978
983
982
983
980
978
980
985
984
985
984
984
987
986
989
987
985
983
985
983
981
981
981
981
981
981
983
986
982
978
978
975
971
965
956
953
950
949
945
942
936
935
937
937
939
938
935
933
936
934
933
935
934
933
937
937
937
938
936
933
937
939
940
939
937
935
941
941
942
940
940
938
942
941
944
945
944
945
945
950
948
948
946
948
949
954
951
948
944
938
936
939
942
948
965
988
1014
1040
1061
1076
1083
1102
1127
1156
1180
1203
1224
1246
1259
1268
1267
1259
1250
1230
1200
1169
1144
1120
1093
1065
1033
998
963
931
903
874
858
846
835
829
822
820
828
832
831
832
831
837
846
855
862
864
868
869
874
883
885
890
892
894
896
902
904
901
902
902
903
904
905
902
899
898
900
900
898
895
892
891
892
893
896
893
890
888
891
892
895
894
889
888
889
892
894
894
892
892
898
900
902
903
901
903
908
910
916
917
917
919
925
929
930
933
934
935
941
945
946
950
950
951
957
964
966
969
966
972
976
980
982
982
983
983
990
995
995
994
993
996
1000
1001
998
999
1000
999
999
1002
1002
1000
997
996
997
997
995
991
993
990
989
991
990
988
987
987
987
990
991
991
992
992
993
995
993
993
993
993
997
1000
1001
999
999
998
1000
1001
1003
1003
1000
994
996
995
993
993
992
991
994
997
994
993
988
982
981
977
974
969
964
959
957
953
952
949
945
944
946
945
946
943
943
943
944
949
947
947
945
945
948
950
947
949
947
945
949
950
950
950
947
948
949
953
953
953
950
951
954
956
955
955
953
955
957
960
959
959
959
957
958
959
960
954
949
947
948
954
965
985
1011
1038
1064
1082
1098
1114
1137
1167
1197
1219
1246
1265
1278
1280
1284
1280
1275
1256
1227
1192
1164
1139
1117
1090
1057
1019
984
949
923
896
871
856
845
839
836
832
832
834
836
836
839
845
851
859
867
872
878
881
884
889
895
900
902
903
903
905
909
909
908
904
903
903
904
907
906
900
896
896
898
899
897
895
891
891
893
894
893
892
889
888
891
894
894
894
894
894
897
901
900
901
901
900
906
910
913
915
918
918
922
926
932
935
935
940
943
948
950
952
957
958
963
967
970
973
975
973
979
985
988
986
987
990
994
997
994
995
995
997
998
1001
1001
1001
999
994
999
999
999
998
993
992
993
993
989
989
987
983
983
983
987
985
986
986
988
992
993
990
990
990
991
992
994
994
994
994
999
1000
1001
998
996
997
999
998
996
994
991
993
994
996
996
995
992
993
990
988
983
978
969
962
961
962
956
949
943
944
945
948
943
941
938
937
940
943
943
943
943
942
945
946
946
946
945
945
947
946
947
945
944
943
946
946
948
947
945
947
947
950
949
946
948
949
951
952
954
952
951
952
956
957
958
956
951
949
947
947
944
947
958
978
1007
1040
1064
1085
1100
1116
1144
1171
1199
1224
1247
1268
1286
1296
1300
1294
1284
1267
1241
1205
1170
1143
1119
1088
1058
1021
980
942
910
883
862
848
837
828
823
823
825
830
834
833
833
840
852
861
864
870
874
877
882
889
893
897
896
899
901
905
904
901
902
899
902
903
902
900
899
898
897
898
898
892
893
893
894
896
893
892
891
890
891
893
891
891
889
886
889
893
895
896
896
898
901
903
906
906
908
909
914
920
923
925
927
929
934
942
946
947
949
951
952
961
963
966
968
969
972
977
980
982
981
984
985
991
992
992
991
991
995
999
999
997
997
995
997
1001
1001
999
996
996
996
998
996
997
993
992
993
995
990
989
988
985
986
988
988
989
987
987
988
992
992
992
987
988
991
994
994
993
992
992
994
997
997
995
994
992
993
994
992
992
990
991
992
996
996
993
988
986
982
978
969
963
959
954
954
950
946
942
938
939
940
941
940
938
940
940
941
944
943
943
940
939
942
945
945
945
943
941
943
946
947
946
946
945
947
948
948
946
945
944
948
950
950
949
946
947
951
953
954
952
952
952
952
955
954
949
947
946
946
949
960
978
1004
1032
1064
1087
1107
1122
1140
1168
1201
1226
1254
1278
1295
1307
1317
1316
1310
1297
1275
1243
1206
1178
1146
1118
1085
1049
1012
975
936
904
874
852
836
830
821
818
817
820
828
829
832
836
843
853
862
868
872
874
877
882
886
892
897
898
898
897
899
903
902
898
896
894
895
897
895
893
891
891
891
892
889
890
887
885
886
887
889
884
885
883
882
888
885
886
887
884
889
893
896
896
896
900
902
907
909
913
915
916
923
928
931
935
937
939
944
951
956
957
960
963
965
971
973
974
977
978
983
985
987
990
988
992
992
992
994
995
993
991
992
995
993
992
991
988
991
996
992
990
990
985
985
986
985
982
983
981
982
982
985
985
985
984
985
987
987
983
984
984
983
988
989
989
992
987
993
994
995
991
987
986
986
990
990
990
988
991
993
993
990
986
977
971
967
965
960
954
946
943
943
943
941
942
937
937
940
942
942
942
940
937
939
941
944
943
942
942
944
946
945
944
941
943
948
948
948
947
944
946
946
948
951
949
947
949
950
954
952
952
950
950
952
957
957
956
954
951
949
949
951
958
967
989
1020
1046
1073
1095
1111
1124
1145
1171
1197
1219
1239
1262
1281
1291
1292
1288
1281
1271
1255
1226
1191
1158
1133
1106
1084
1059
1026
988
953
923
897
871
855
841
831
827
827
830
832
834
833
834
843
852
861
865
868
874
877
885
887
894
897
900
905
907
908
904
906
905
905
907
906
906
904
901
902
904
903
902
898
897
899
901
901
899
899
897
898
902
900
897
898
896
899
900
901
901
902
899
901
905
907
905
909
911
915
919
923
924
926
928
933
939
942
946
949
948
956
961
965
968
970
972
977
981
982
985
986
987
992
999
1001
999
999
1000
1003
1003
1006
1004
1006
1003
1006
1006
1006
1004
1001
1001
1003
1002
1002
999
997
995
997
998
996
995
993
992
993
996
995
996
994
994
998
999
998
995
994
993
997
1000
1001
1003
1002
1002
1005
1007
1008
1005
1000
998
998
999
1000
1000
999
1001
1003
1006
1002
1000
992
981
981
979
974
969
964
959
956
957
954
953
951
949
949
952
952
953
952
950
952
953
954
954
951
951
955
957
957
956
957
954
956
957
959
959
958
959
963
963
963
963
959
960
962
964
963
963
962
961
963
963
964
964
962
958
957
954
956
958
966
986
1015
1042
1067
1087
1099
1110
1127
1153
1181
1207
1228
1248
1267
1280
1281
1277
1269
1258
1237
1206
1175
1151
1131
1106
1079
1047
1013
975
946
920
896
877
864
852
846
843
845
849
850
849
851
857
866
875
880
883
886
890
896
901
905
910
911
914
918
918
920
921
918
917
918
919
918
917
915
911
914
915
915
914
913
911
913
913
911
910
909
907
910
912
909
910
907
907
910
911
911
913
911
913
915
919
919
920
920
920
926
930
931
932
934
937
941
947
949
952
952
955
958
964
969
970
972
972
978
982
986
987
989
991
996
1001
1004
1004
1004
1006
1008
1011
1013
1013
1011
1011
1014
1015
1014
1009
1010
1006
1009
1011
1009
1008
1007
1003
1005
1006
1003
1000
997
995
997
1000
1003
1003
1003
1004
1007
1008
1008
1007
1004
1003
1007
1011
1012
1012
1010
1008
1011
1014
1012
1009
1006
1002
1006
1007
1007
1007
1006
1004
1005
1000
995
987
978
973
972
970
966
962
958
956
961
959
961
958
954
955
957
957
960
956
954
955
958
959
960
958
956
959
962
963
962
961
961
960
965
964
965
962
962
961
967
967
969
967
965
967
970
972
969
970
966
962
958
955
957
958
968
990
1020
1053
1077
1095
1111
1130
1159
1191
1218
1242
1264
1281
1294
1298
1298
1289
1274
1248
1213
1181
1157
1132
1104
1068
1033
996
962
932
903
879
864
855
846
841
839
840
843
845
846
854
859
866
874
883
886
888
892
897
904
910
912
916
914
913
918
923
918
918
917
916
916
917
916
913
912
906
908
909
907
905
904
900
902
902
904
902
902
901
900
903
904
902
903
903
904
906
909
911
910
912
915
919
921
923
925
925
931
936
939
940
943
946
948
954
956
959
960
963
969
972
977
979
982
983
987
992
996
997
996
1000
1002
1006
1008
1008
1008
1010
1011
1014
1015
1016
1014
1012
1014
1016
1015
1014
1011
1008
1008
1009
1007
1007
1004
1001
1001
1003
1006
1004
1001
1001
1006
1008
1009
1008
1008
1007
1007
1008
1007
1009
1009
1012
1013
1015
1018
1017
1015
1013
1015
1014
1013
1009
1004
1005
1005
1006
1008
1009
1009
1006
1004
1003
998
992
984
976
973
971
969
964
960
958
959
962
959
958
957
957
959
962
961
962
961
958
959
962
962
960
959
957
961
962
962
964
964
962
963
966
965
967
966
965
966
969
971
969
966
966
970
972
972
969
966
959
957
959
957
963
972
994
1023
1051
1078
1097
1110
1127
1154
1186
1216
1243
1265
1287
1300
1309
1308
1301
1289
1268
1235
1201
1170
1142
1112
1080
1044
1003
962
929
900
876
861
853
844
840
838
838
844
844
848
853
859
865
875
881
885
892
892
894
902
908
912
913
913
912
916
916
917
915
914
911
914
913
914
910
906
903
908
906
907
905
902
903
902
905
902
899
896
895
899
898
901
899
898
900
903
905
907
908
906
906
910
915
918
916
921
924
929
937
938
940
942
943
951
955
956
960
961
963
970
972
975
976
977
980
984
989
992
992
995
995
1001
1004
1006
1006
1006
1008
1011
1013
1015
1013
1012
1012
1012
1014
1013
1013
1009
1007
1010
1010
1008
1007
1003
1002
1003
1003
1002
1000
998
998
999
1002
1007
1003
1005
1004
1006
1008
1005
1005
1002
1000
1005
1005
1008
1009
1008
1010
1010
1009
1013
1011
1008
1006
1005
1008
1009
1010
1007
1007
1010
1010
1008
1004
998
993
991
985
981
976
971
964
964
962
962
958
958
957
959
959
958
959
957
957
960
961
960
958
959
958
961
962
963
960
961
959
959
963
964
961
962
961
959
961
961
962
961
961
964
967
966
967
965
966
970
971
968
971
971
968
974
972
970
965
959
956
960
971
985
1003
1027
1054
1077
1100
1117
1130
1151
1181
1213
1241
1267
1289
1305
1317
1321
1324
1317
1307
1282
1248
1212
1183
1159
1132
1100
1065
1027
992
962
934
905
879
865
855
845
842
838
836
842
845
848
846
849
855
862
872
877
881
886
887
892
899
904
905
907
911
914
917
919
919
918
915
918
918
917
916
914
911
914
915
915
914
909
909
909
913
911
909
907
903
903
909
906
903
900
902
900
902
902
903
900
903
904
904
907
907
906
909
911
916
919
919
922
920
925
929
932
935
935
938
943
949
951
957
956
959
965
968
973
975
976
978
981
984
986
988
990
991
997
1000
998
1001
1003
1004
1007
1011
1011
1012
1010
1010
1011
1015
1016
1013
1013
1012
1012
1016
1014
1012
1013
1009
1011
1011
1012
1010
1006
1004
1006
1003
1006
1004
1001
1002
1003
1006
1005
1006
1004
1002
1003
1004
1005
1003
1002
1001
1003
1007
1009
1012
1013
1009
1011
1014
1015
1013
1010
1005
1006
1007
1008
1007
1005
1005
1009
1013
1011
1011
1008
1003
1000
998
994
986
981
976
974
968
965
962
959
955
958
960
958
957
955
952
959
960
962
961
959
959
959
961
963
965
962
960
965
967
967
964
962
964
964
965
966
965
964
964
966
967
969
968
968
968
968
967
970
969
971
969
972
972
973
972
969
971
969
969
966
961
965
967
984
1009
1037
1063
1087
1111
1130
1144
1162
1188
1209
1233
1258
1282
1302
1318
1322
1321
1318
1311
1296
1267
1232
1197
1171
1147
1120
1091
1057
1018
978
946
921
892
870
857
846
841
837
835
836
839
843
846
850
856
860
868
875
883
886
890
891
892
899
905
910
910
911
912
914
916
915
917
915
911
910
914
911
912
909
908
911
908
912
909
907
905
904
907
907
906
905
903
904
907
905
904
906
905
906
906
905
906
904
907
911
915
914
918
917
919
924
927
930
933
933
934
939
947
950
953
953
957
961
966
971
973
974
978
981
986
990
992
993
994
997
1002
1003
1002
1003
1004
1009
1012
1012
1011
1010
1009
1010
1012
1012
1011
1010
1008
1009
1009
1008
1008
1006
1004
1005
1004
1003
1003
999
998
997
999
1001
1000
1003
999
1001
1004
1004
1002
1000
997
1000
1000
997
995
996
1002
1003
1008
1008
1009
1009
1006
1006
1008
1007
1004
1002
1002
1004
1004
1004
1005
1006
1005
1006
1003
998
990
983
979
975
972
966
962
959
956
956
957
958
955
954
951
951
956
956
955
955
953
957
958
959
957
958
954
957
960
962
962
960
961
961
962
965
964
964
963
965
969
968
965
965
965
964
966
968
967
969
966
969
971
973
971
968
967
963
966
967
964
969
976
998
1021
1048
1073
1094
1114
1126
1141
1159
1187
1210
1233
1255
1269
1277
1276
1272
1266
1259
1247
1228
1201
1170
1150
1130
1115
1093
1069
1036
1003
971
943
918
892
872
861
856
851
847
848
849
850
853
855
857
863
869
872
880
889
892
893
896
899
905
911
916
919
919
920
922
924
927
925
923
921
921
923
923
920
921
915
916
918
919
917
915
913
915
916
916
913
913
909
912
915
914
913
910
910
913
916
914
915
913
916
917
919
924
924
925
924
929
933
936
937
939
943
945
950
957
958
959
961
966
972
973
976
978
980
983
989
992
995
995
996
1000
1005
1005
1006
1006
1010
1012
1015
1016
1018
1014
1014
1016
1017
1016
1016
1014
1013
1012
1014
1013
1010
1009
1008
1008
1008
1006
1005
1001
998
1003
1005
1007
1008
1008
1008
1006
1010
1010
1008
1008
1006
1007
1010
1011
1013
1013
1011
1012
1015
1016
1014
1010
1008
1005
1008
1010
1007
1010
1009
1011
1011
1009
1005
997
991
987
983
978
974
969
965
963
963
962
962
960
956
959
961
962
961
957
959
961
962
963
960
961
959
964
965
964
967
965
965
967
964
969
968
966
966
968
969
972
972
970
971
969
971
974
974
971
969
972
972
972
971
966
960
958
960
965
974
991
1017
1046
1070
1090
1103
1116
1136
1165
1193
1215
1236
1251
1262
1267
1274
1274
1269
1257
1238
1209
1181
1161
1139
1116
1091
1062
1029
994
961
934
909
889
878
868
860
854
850
850
854
857
855
855
859
869
879
885
888
889
893
898
904
911
912
915
917
922
922
923
926
923
920
920
922
921
920
919
915
916
916
917
917
912
910
910
912
913
910
908
906
909
910
911
911
909
906
908
911
911
912
908
910
914
915
919
918
918
919
922
927
930
933
933
934
940
941
946
948
949
952
956
963
966
969
969
970
976
982
986
986
989
991
996
997
1002
1004
1006
1007
1010
1013
1012
1012
1014
1013
1017
1015
1016
1017
1015
1011
1014
1012
1012
1011
1008
1006
1005
1006
1006
1004
1001
1001
999
1002
1004
1004
1004
1004
1006
1007
1009
1009
1005
1004
1008
1008
1011
1011
1012
1012
1012
1015
1015
1014
1013
1007
1006
1006
1008
1008
1004
1004
1007
1006
1009
1005
998
992
986
984
980
973
970
966
963
961
962
962
958
957
955
961
959
961
960
955
957
958
960
959
958
958
959
959
963
961
960
960
965
967
966
966
965
962
963
967
969
968
966
965
966
968
969
972
969
970
972
971
972
970
966
964
959
957
959
959
974
995
1023
1051
1074
1090
1103
1118
1145
1174
1203
1232
1253
1273
1288
1293
1294
1290
1280
1263
1236
1202
1172
1151
1126
1097
1067
1028
991
957
927
899
880
868
858
848
843
841
845
848
849
849
850
854
866
876
884
887
887
889
895
900
906
909
912
911
913
917
921
918
915
915
919
919
919
918
915
911
914
914
914
913
909
904
904
907
906
906
904
901
903
905
905
904
902
902
903
906
905
907
904
905
910
910
912
914
915
918
921
925
929
931
932
934
939
942
947
948
949
952
957
961
963
966
970
969
977
982
985
987
988
992
995
1000
1000
1003
1004
1004
1007
1011
1012
1014
1012
1012
1014
1020
1018
1019
1015
1013
1013
1014
1013
1012
1008
1006
1006
1006
1004
1003
1001
998
999
1002
1004
1005
1005
1003
1006
1006
1007
1008
1005
1002
1007
1009
1012
1012
1014
1011
1010
1014
1013
1011
1007
1004
1005
1009
1010
1009
1010
1007
1006
1002
1001
992
983
978
972
971
967
960
958
957
958
959
958
958
958
956
956
958
962
959
960
959
959
961
962
960
961
959
958
960
961
961
958
959
958
963
964
964
964
961
963
966
967
968
966
965
967
971
971
971
970
965
961
959
960
962
972
988
1014
1045
1073
1094
1108
1125
1153
1185
1216
1243
1265
1285
1298
1306
1307
1298
1286
1259
1223
1190
1162
1137
1111
1075
1038
1003
965
934
906
880
864
855
850
847
845
842
848
851
851
852
858
862
873
882
887
890
889
896
901
907
913
914
916
912
915
920
922
918
918
914
916
915
915
913
911
909
910
912
910
910
908
908
907
909
906
904
905
902
902
902
903
905
904
901
903
905
909
910
908
906
910
914
915
920
918
920
925
927
930
934
936
937
942
945
950
953
955
957
961
968
970
975
976
977
981
985
987
991
992
995
997
1000
1001
1005
1004
1005
1006
1010
1009
1012
1013
1009
1012
1013
1015
1010
1011
1008
1009
1010
1011
1009
1007
1005
1004
1005
1004
1004
1001
1000
1000
1000
1001
1004
1004
1001
1004
1004
1004
1003
1002
1000
1002
1004
1008
1009
1008
1006
1010
1010
1012
1011
1010
1003
1004
1005
1009
1007
1007
1004
1005
1009
1009
1008
1003
998
993
986
983
977
971
961
960
957
958
956
956
952
951
953
956
955
953
952
953
955
959
958
954
952
954
958
963
959
960
959
960
963
962
962
962
956
960
962
962
963
963
962
963
964
965
967
966
965
966
967
968
965
959
954
952
955
961
974
995
1022
1054
1081
1104
1118
1135
1160
1194
1225
1252
1278
1296
1306
1310
1314
1308
1294
1268
1228
1189
1161
1133
1103
1065
1020
977
942
912
888
866
849
842
839
837
837
840
840
841
845
852
859
867
872
879
886
889
893
895
898
902
907
910
914
914
912
911
917
917
914
911
911
910
910
910
908
906
903
901
906
905
904
904
902
904
903
904
903
903
899
899
901
902
903
900
900
901
903
904
906
904
904
908
911
913
918
917
918
923
926
932
933
936
938
943
948
953
953
957
957
960
966
970
975
977
979
981
987
989
994
994
994
997
1000
1005
1003
1005
1003
1006
1006
1007
1009
1008
1008
1007
1010
1010
1009
1005
1006
1005
1006
1005
1006
1002
1000
999
1000
1002
996
997
994
994
997
1000
999
1000
997
1001
1002
1001
1000
998
995
995
997
999
998
1000
997
1001
1007
1009
1008
1005
1003
1002
1001
998
1001
1000
998
999
1001
1004
1003
1001
1000
999
997
993
983
975
970
966
967
961
960
954
952
953
953
954
953
954
951
953
954
956
955
954
950
953
955
957
960
957
953
954
955
956
958
959
956
956
958
960
961
962
960
962
964
964
964
963
960
963
964
965
965
965
963
961
962
959
959
959
967
989
1021
1053
1083
1107
1122
1142
1165
1194
1222
1245
1274
1295
1308
1312
1306
1293
1270
1233
1194
1160
1129
1100
1063
1022
980
941
910
883
860
844
835
831
833
833
833
837
839
845
849
857
864
872
878
882
886
890
894
901
906
907
911
910
911
910
911
913
911
910
907
908
907
907
906
904
902
902
904
903
905
902
897
898
899
899
899
897
894
900
901
901
901
901
900
903
904
909
909
910
909
912
913
918
922
925
925
933
934
937
941
942
942
948
953
958
961
963
962
968
972
976
981
982
983
986
991
994
998
998
997
1002
1003
1005
1005
1004
1003
1003
1004
1008
1007
1004
1000
1001
1001
1001
1002
999
996
996
996
997
995
994
989
991
990
994
995
992
993
996
1000
1002
1002
999
995
996
999
1001
997
997
999
1001
1003
1008
1007
1005
1004
1004
1006
1003
1003
1000
999
1000
1000
1004
1003
1002
1001
1000
1002
996
989
983
976
973
970
969
963
959
955
957
958
957
956
955
953
953
954
956
955
954
953
954
955
956
956
955
953
955
958
959
961
958
957
957
959
962
962
962
956
961
963
967
966
967
963
962
965
969
969
969
967
967
966
967
964
959
953
956
963
973
993
1018
1045
1075
1099
1115
1127
1145
1167
1194
1220
1244
1261
1273
1274
1271
1271
1267
1251
1223
1187
1160
1138
1119
1094
1060
1026
990
959
930
905
881
862
851
847
845
843
846
847
847
851
859
866
872
879
885
890
892
898
903
907
911
916
919
922
921
919
919
923
923
922
918
916
917
915
916
914
913
910
911
913
911
911
909
908
906
909
911
909
910
907
910
912
913
911
911
910
913
916
917
919
919
919
923
928
932
933
933
933
939
944
947
950
950
952
956
961
967
967
969
973
976
979
986
988
989
990
994
998
1003
1004
1005
1003
1006
1009
1013
1013
1014
1011
1014
1016
1018
1018
1016
1011
1011
1011
1012
1011
1008
1004
1008
1003
1005
1005
1002
997
1000
999
1001
1003
1001
1002
1004
1005
1007
1008
1006
1001
1005
1010
1011
1014
1012
1010
1013
1014
1019
1018
1019
1016
1014
1013
1012
1010
1010
1008
1009
1009
1014
1013
1010
1005
1004
1001
995
990
983
976
973
972
969
964
961
958
958
961
962
962
960
958
960
963
964
963
963
960
962
964
963
963
962
961
962
962
964
962
963
962
962
966
966
967
966
965
970
970
972
970
968
966
968
970
971
973
973
971
973
972
972
975
968
961
960
961
963
965
978
996
1025
1051
1075
1092
1104
1116
1142
1170
1200
1226
1246
1264
1282
1289
1296
1294
1288
1277
1259
1231
1203
1176
1157
1132
1107
1079
1049
1012
978
944
918
893
879
865
853
845
841
844
846
846
845
843
849
856
866
874
876
884
885
892
896
898
903
904
910
914
917
920
918
913
918
919
920
919
916
913
915
916
913
914
913
911
910
912
912
911
906
905
906
907
907
907
905
903
904
904
905
906
905
906
908
907
910
911
912
912
914
918
920
921
920
921
923
927
934
934
938
937
941
947
950
953
953
953
958
963
968
972
973
971
976
982
986
989
989
991
992
996
1002
1002
1004
1004
1007
1010
1012
1012
1012
1008
1010
1014
1016
1015
1014
1012
1015
1014
1015
1014
1012
1009
1009
1010
1010
1009
1008
1004
1004
1004
1002
1003
998
997
1000
1004
1004
1007
1003
1001
1003
1005
1007
1006
1004
1003
1004
1008
1010
1011
1012
1010
1012
1015
1015
1016
1014
1012
1009
1007
1010
1011
1010
1007
1008
1011
1010
1010
1008
1003
1000
999
995
991
985
977
974
971
969
965
963
961
961
964
963
961
959
961
960
964
964
963
963
961
964
966
966
965
965
963
964
966
967
966
966
963
963
968
968
967
967
964
964
968
970
971
968
969
969
972
973
974
971
972
973
974
977
978
978
975
975
973
971
968
965
965
966
979
999
1025
1048
1070
1093
1107
1123
1137
1160
1185
1215
1242
1264
1284
1303
1308
1310
1313
1308
1299
1287
1263
1233
1205
1183
1159
1140
1114
1088
1055
1021
985
955
925
901
883
868
858
848
840
843
846
849
850
849
848
855
863
872
879
880
883
888
894
898
902
906
907
914
919
923
924
923
923
924
926
923
924
922
920
921
921
922
920
918
914
914
917
919
915
914
910
912
914
915
914
911
907
908
909
912
911
909
907
909
910
914
916
913
912
912
918
917
922
924
923
927
929
935
936
939
938
941
945
951
956
955
957
963
966
971
974
975
978
983
988
991
993
992
996
999
1003
1007
1005
1008
1007
1013
1014
1017
1019
1018
1017
1019
1022
1022
1022
1019
1018
1018
1019
1021
1021
1016
1015
1015
1016
1017
1015
1011
1008
1006
1009
1006
1007
1006
1002
1005
1006
1008
1010
1007
1006
1008
1006
1008
1010
1010
1005
1010
1011
1014
1014
1017
1015
1018
1018
1018
1016
1014
1013
1012
1014
1015
1017
1014
1011
1015
1016
1015
1012
1006
998
994
987
986
982
972
966
965
965
967
964
962
960
959
961
964
965
963
959
962
963
965
966
965
963
965
967
968
969
968
965
966
969
970
970
970
968
969
969
970
970
967
966
967
969
971
975
973
971
974
975
979
977
976
974
972
970
966
966
968
975
997
1025
1054
1083
1105
1118
1134
1157
1187
1214
1236
1258
1283
1304
1321
1326
1323
1314
1302
1276
1238
1199
1164
1138
1111
1080
1043
1003
963
929
901
881
864
852
845
840
841
842
846
848
847
846
854
862
874
880
883
887
890
893
898
903
907
907
913
914
921
919
920
917
918
921
920
916
916
913
912
914
916
916
913
911
911
913
911
911
909
907
908
909
910
911
905
905
906
906
908
906
906
903
906
909
909
911
908
909
913
918
922
924
923
924
928
932
936
937
940
942
947
949
954
958
962
961
966
969
975
977
979
980
982
987
990
993
995
997
999
1004
1006
1005
1007
1006
1010
1010
1014
1012
1011
1011
1014
1014
1017
1016
1015
1011
1010
1013
1010
1010
1007
1005
1003
1004
1005
1003
1001
1002
1003
1003
1005
1005
1006
1004
1004
1006
1008
1006
1001
1000
1000
1002
1002
1002
1003
1005
1006
1011
1014
1014
1007
1006
1007
1008
1007
1008
1006
1002
1004
1004
1006
1009
1011
1005
1001
1001
999
990
984
981
979
974
973
967
963
959
957
959
959
960
956
956
958
959
961
960
959
960
957
963
962
964
962
959
960
963
966
966
965
965
964
964
969
969
966
966
967
970
970
970
969
967
968
970
972
973
974
971
972
970
969
966
967
969
986
1012
1044
1074
1099
1118
1136
1157
1183
1213
1238
1262
1283
1295
1300
1299
1292
1277
1258
1227
1193
1163
1134
1109
1082
1051
1014
976
942
911
887
869
857
845
841
839
841
844
848
846
851
858
867
877
886
888
891
897
901
907
912
915
917
918
917
920
919
917
917
917
913
915
915
914
910
909
907
909
910
908
905
905
907
906
909
906
906
905
905
906
909
907
906
907
909
909
914
911
911
913
915
919
919
919
922
925
926
931
934
939
940
941
947
954
957
958
961
962
966
971
975
976
979
979
983
987
991
995
998
997
998
1002
1006
1007
1008
1008
1009
1011
1011
1010
1011
1007
1007
1009
1010
1010
1006
1005
1006
1007
1006
1003
1002
999
998
1000
997
993
992
991
987
993
996
1001
1000
998
1002
1001
1002
1000
999
996
997
998
1001
1005
1004
1002
1003
1006
1006
1009
1005
1002
1000
998
1002
1004
1002
1001
1001
1004
1007
1007
1004
997
989
986
981
976
972
966
962
961
959
959
958
956
954
955
956
956
955
951
953
954
957
956
955
952
951
957
958
960
958
953
956
958
960
960
957
957
955
963
964
965
964
960
961
964
969
965
965
964
966
967
968
967
966
962
959
958
959
961
967
984
1011
1044
1070
1093
1108
1116
1137
1162
1189
1214
1235
1249
1261
1265
1264
1259
1247
1226
1197
1169
1148
1127
1104
1074
1042
1006
971
938
907
879
863
852
848
842
841
841
842
846
850
855
862
867
876
885
889
891
893
896
901
910
916
918
919
916
918
918
918
920
916
912
913
915
914
914
912
907
908
908
909
907
904
903
901
903
907
904
902
901
902
905
906
909
907
906
907
909
911
913
914
915
917
923
925
926
926
926
931
932
936
939
941
943
947
954
957
959
961
963
967
971
977
982
981
983
987
990
994
995
998
997
1000
1004
1008
1009
1006
1006
1008
1010
1012
1012
1011
1008
1009
1008
1012
1009
1006
1001
1003
1003
1003
1004
1001
997
996
996
998
999
998
998
999
1000
1004
1006
1004
1000
1001
1003
1002
1004
1003
1003
1007
1010
1013
1014
1013
1011
1011
1014
1015
1012
1006
1003
1003
1003
1005
1005
1005
1004
1006
1005
1003
999
992
982
978
976
973
969
965
960
960
959
962
959
959
954
956
958
961
961
960
959
957
959
961
960
961
956
957
958
962
961
960
956
957
960
962
963
962
962
964
964
967
969
967
966
967
969
971
971
971
969
972
974
973
967
963
957
956
961
973
995
1023
1050
1074
1098
1115
1136
1163
1191
1218
1243
1266
1281
1284
1282
1274
1261
1233
1195
1162
1137
1109
1080
1044
1002
962
927
899
878
866
853
848
843
846
848
852
851
857
861
872
882
888
889
897
899
904
910
917
919
920
919
924
925
925
925
923
922
919
921
921
919
919
915
914
917
913
915
910
907
908
909
909
909
907
907
908
907
910
911
910
908
908
913
916
918
917
917
920
927
929
933
933
933
937
942
946
950
951
953
956
962
966
969
972
974
976
981
987
987
990
991
995
1000
1004
1006
1008
1009
1010
1014
1015
1016
1016
1014
1016
1020
1021
1021
1018
1017
1015
1017
1017
1015
1013
1010
1010
1011
1014
1010
1010
1004
1003
1006
1007
1007
1004
1007
1007
1010
1013
1011
1007
1005
1006
1008
1009
1010
1008
1008
1009
1014
1018
1018
1015
1014
1013
1015
1013
1013
1011
1010
1009
1012
1013
1012
1012
1007
1005
1003
997
993
986
980
977
973
971
968
962
961
960
962
964
963
962
958
962
963
963
963
962
961
960
964
966
967
965
965
965
965
967
967
966
963
960
964
968
966
966
966
965
966
970
969
969
969
969
972
972
974
974
972
973
975
976
975
970
963
961
962
969
983
1004
1032
1062
1089
1110
1122
1140
1167
1197
1224
1250
1274
1294
1303
1306
1307
1304
1288
1263
1227
1187
1165
1143
1117
1086
1046
1006
971
942
914
887
871
857
849
849
847
847
848
847
852
857
866
873
878
883
889
897
899
902
904
910
914
919
920
917
917
916
917
919
919
919
915
911
916
918
916
914
911
911
912
910
910
906
907
904
907
907
907
905
903
902
907
907
907
906
904
908
910
915
915
916
915
919
924
928
931
931
933
936
941
948
950
951
954
958
964
968
975
974
976
979
985
990
990
994
993
994
998
1004
1007
1006
1006
1009
1013
1015
1016
1016
1014
1014
1018
1020
1019
1018
1015
1015
1017
1016
1017
1013
1012
1011
1011
1014
1009
1007
1005
1002
1005
1010
1009
1007
1007
1006
1007
1012
1009
1007
1005
1006
1006
1008
1006
1007
1009
1010
1015
1018
1018
1015
1013
1012
1015
1012
1012
1010
1009
1008
1011
1013
1013
1015
1012
1011
1011
1006
1000
992
987
981
978
976
971
967
961
960
962
964
961
960
959
956
961
966
964
964
962
962
963
963
964
965
961
963
965
967
966
966
966
966
965
968
967
967
966
963
969
971
970
967
968
966
970
970
972
972
970
973
974
977
974
972
969
967
965
965
962
961
963
973
996
1023
1049
1074
1096
1113
1129
1156
1184
1215
1238
1263
1289
1309
1318
1321
1318
1312
1302
1282
1250
1214
1184
1158
1135
1109
1077
1038
1000
962
935
908
880
860
845
838
839
843
842
842
843
841
850
860
870
876
876
883
889
896
899
904
908
909
914
918
914
915
914
913
915
916
915
912
911
909
911
910
909
908
907
907
907
907
905
904
902
903
903
907
904
903
900
900
904
909
906
906
904
906
907
912
915
911
914
915
920
927
930
928
929
933
937
945
946
951
952
957
960
967
973
972
977
977
985
991
993
994
996
997
1004
1008
1009
1008
1010
1008
1015
1014
1018
1016
1014
1015
1018
1018
1018
1016
1014
1013
1013
1014
1013
1011
1010
1010
1010
1010
1008
1005
1005
1003
1005
1006
1008
1011
1010
1010
1012
1013
1010
1009
1009
1005
1006
1008
1009
1009
1011
1011
1013
1016
1015
1012
1011
1005
1008
1009
1009
1009
1007
1009
1011
1013
1013
1009
1002
998
991
989
985
978
974
969
967
967
966
963
960
958
959
961
960
958
957
958
958
961
959
959
957
958
960
962
962
961
959
958
960
962
963
962
961
960
961
965
965
964
966
965
966
966
966
968
964
962
969
967
970
969
969
967
965
966
965
962
956
955
963
978
1003
1032
1060
1088
1112
1130
1146
1170
1199
1227
1256
1285
1308
1322
1330
1331
1328
1323
1309
1284
1244
1207
1179
1152
1121
1087
1049
1007
962
928
898
870
848
837
833
827
826
826
828
827
832
834
840
847
854
863
871
877
879
882
886
891
898
904
910
910
909
910
913
912
912
911
908
905
904
908
904
903
901
900
899
900
900
898
899
895
899
900
896
895
895
892
894
898
896
895
894
893
898
900
901
902
901
900
904
903
907
909
908
911
917
920
921
922
924
928
931
936
938
941
945
947
952
956
959
961
965
967
973
977
979
980
982
984
988
993
994
996
996
999
1003
1008
1007
1008
1007
1006
1008
1012
1010
1006
1004
1004
1004
1005
1002
1001
1000
998
999
997
994
993
992
989
990
991
995
997
996
997
995
997
998
995
996
994
993
992
994
991
991
992
1000
1005
1003
1002
1000
996
999
999
999
992
994
991
993
996
996
996
995
995
997
999
991
986
981
972
971
970
965
960
953
952
951
952
953
950
949
948
950
951
951
948
948
945
949
950
951
950
947
945
948
949
951
948
948
950
951
953
953
952
952
950
954
957
958
955
955
956
955
962
962
962
961
959
963
964
962
960
954
950
952
956
963
978
1003
1031
1062
1091
1112
1123
1140
1162
1189
1218
1246
1269
1282
1288
1291
1290
1281
1265
1235
1200
1167
1141
1116
1091
1059
1020
982
949
918
888
865
848
837
831
826
823
823
823
827
828
831
836
850
854
862
869
872
873
878
883
891
898
901
901
902
903
902
906
909
907
901
904
905
907
907
905
901
900
901
902
902
899
898
896
897
899
899
898
896
896
896
898
900
899
897
893
898
899
903
902
900
902
907
908
911
912
914
915
920
923
926
926
927
930
935
942
943
942
946
948
953
958
965
961
962
967
972
979
980
983
984
985
989
992
996
997
996
999
1002
1004
1006
1005
1004
1004
1008
1010
1010
1010
1006
1008
1009
1009
1007
1004
1001
999
1001
1003
1003
999
996
996
993
997
997
996
996
996
1000
1001
1002
1001
999
998
997
1001
1002
997
997
996
1000
1005
1008
1007
1009
1007
1008
1011
1010
1009
1007
1003
1004
1004
1005
1002
1000
1001
1006
1008
1005
1004
1000
994
989
986
980
977
973
966
965
964
963
960
958
957
956
958
955
956
956
955
957
959
960
958
958
957
959
961
958
958
959
957
960
959
960
959
956
956
959
962
960
959
959
961
961
965
963
960
961
961
966
967
966
967
965
966
968
968
968
969
968
966
965
962
959
959
962
972
992
1021
1048
1071
1091
1105
1118
1139
1165
1191
1214
1236
1258
1276
1283
1283
1278
1274
1268
1253
1230
1197
1171
1147
1130
1109
1086
1053
1018
985
956
932
904
881
865
853
848
845
842
840
842
842
844
847
851
858
863
870
876
882
886
888
891
898
903
911
913
913
914
914
918
920
919
917
915
912
915
917
917
915
914
912
915
915
914
911
910
908
908
912
909
907
903
902
905
907
906
904
905
902
904
907
908
906
906
906
911
912
913
916
915
916
921
924
928
927
930
932
937
939
943
946
948
951
956
961
964
963
966
968
973
976
982
980
983
983
988
990
994
996
1000
1000
1006
1008
1007
1009
1011
1009
1014
1018
1016
1017
1014
1015
1016
1017
1017
1015
1015
1012
1014
1016
1017
1015
1012
1010
1010
1009
1009
1008
1004
1004
1003
1006
1004
1004
1003
1006
1008
1008
1011
1010
1008
1005
1008
1011
1007
1008
1006
1005
1006
1010
1015
1014
1012
1013
1015
1016
1017
1015
1013
1011
1012
1013
1014
1012
1011
1010
1013
1015
1014
1010
1005
1001
996
992
988
981
976
970
968
969
966
959
959
957
958
961
961
959
959
958
959
962
963
961
961
961
961
964
964
964
960
962
963
964
966
967
964
962
966
967
968
966
965
965
968
969
969
968
968
968
971
970
971
972
971
972
973
974
973
967
962
959
960
964
973
988
1014
1041
1067
1091
1108
1124
1141
1170
1207
1236
1262
1285
1296
1305
1308
1307
1296
1279
1251
1215
1185
1160
1136
1106
1074
1034
995
958
925
896
870
854
846
843
840
841
841
840
844
851
858
866
874
878
885
888
894
896
899
905
908
911
916
914
916
915
917
919
919
917
916
913
912
916
914
911
910
908
911
910
909
909
907
905
905
906
906
905
904
903
905
906
904
902
901
903
905
906
909
911
909
907
914
916
918
918
919
921
926
932
934
937
941
942
949
953
957
959
962
964
971
977
980
984
984
987
992
996
1000
1000
1003
1006
1007
1011
1014
1014
1013
1013
1016
1018
1019
1019
1018
1015
1018
1017
1020
1020
1019
1014
1015
1015
1014
1014
1009
1008
1011
1010
1009
1008
1008
1007
1009
1009
1012
1012
1010
1010
1011
1012
1013
1011
1006
1006
1006
1009
1011
1011
1012
1014
1017
1016
1016
1015
1013
1012
1012
1012
1012
1007
1004
1007
1010
1014
1016
1011
1007
1005
1002
996
990
985
978
976
973
970
968
964
960
960
961
960
959
957
957
956
956
958
960
961
959
957
961
963
964
963
962
960
963
966
965
964
964
962
966
966
967
967
967
967
967
969
969
969
969
968
968
970
972
971
971
971
970
973
969
964
960
958
962
969
986
1010
1039
1070
1100
1120
1138
1164
1196
1229
1260
1287
1310
1320
1325
1323
1318
1309
1288
1254
1218
1186
1159
1131
1103
1065
1021
974
939
910
885
864
849
838
837
833
837
838
838
835
844
855
865
873
877
884
887
893
900
903
904
908
911
914
917
917
915
914
913
914
912
911
910
908
907
908
906
904
904
901
903
903
902
900
896
895
898
899
900
898
898
898
901
904
903
903
902
904
907
910
911
913
915
919
923
927
931
934
936
939
943
950
954
957
956
961
967
973
976
979
982
983
989
996
999
1001
1000
1002
1005
1010
1009
1012
1011
1011
1014
1014
1015
1014
1011
1009
1008
1011
1012
1009
1007
1006
1006
1005
1004
1002
999
1000
1001
1005
1006
1006
1005
1004
1005
1004
1006
1003
999
999
999
1004
1006
1005
1006
1009
1009
1009
1008
1007
1003
1003
1003
1001
1003
1001
998
999
1001
1006
1006
1002
998
990
986
981
976
973
967
962
960
957
958
956
953
952
953
949
951
951
949
948
950
951
952
951
951
950
950
951
956
953
952
951
955
952
954
955
954
954
957
958
960
959
958
955
958
962
963
962
960
958
962
963
965
964
960
957
956
954
953
951
954
965
992
1022
1054
1084
1106
1123
1144
1176
1203
1233
1262
1287
1309
1325
1329
1330
1321
1309
1286
1252
1212
1179
1146
1113
1080
1039
994
951
914
882
856
840
828
818
812
813
820
823
824
829
834
843
855
859
867
870
872
877
886
891
895
898
898
896
898
903
902
899
896
896
897
897
897
893
889
889
891
891
893
889
887
883
884
886
887
886
882
883
884
887
885
885
883
886
888
891
892
895
896
897
900
904
908
906
907
912
917
920
922
926
926
933
939
944
948
952
954
956
961
967
970
971
975
975
980
986
989
990
992
994
995
1000
1002
1002
998
995
1000
1001
998
995
992
992
990
992
993
991
989
985
987
989
988
984
980
982
984
987
987
986
984
984
986
987
987
987
986
981
982
983
984
984
986
986
992
994
992
991
989
986
989
989
988
987
984
983
984
986
991
990
987
981
982
975
970
964
955
951
949
947
944
941
939
940
939
941
940
939
937
935
938
940
939
939
937
935
937
939
940
938
936
938
941
941
944
943
941
939
941
944
945
942
944
944
945
949
950
951
949
948
952
952
955
952
952
951
954
952
948
945
945
945
957
981
1010
1041
1072
1091
1110
1125
1145
1170
1197
1221
1246
1265
1277
1280
1275
1271
1264
1252
1226
1189
1157
1130
1107
1078
1044
1006
961
926
895
867
848
833
820
811
811
813
817
817
816
819
830
840
849
855
858
862
866
874
879
885
887
886
891
895
898
898
897
897
897
898
898
896
894
893
894
895
892
891
888
884
886
891
889
886
885
885
884
886
888
887
885
885
886
892
890
892
892
891
895
898
901
903
905
908
911
915
919
921
924
924
929
934
939
940
942
945
952
960
965
965
968
972
976
978
982
984
986
987
991
995
996
996
997
998
1003
1002
1002
998
998
999
998
1001
999
996
991
990
992
990
990
987
986
983
986
987
990
991
991
991
991
993
992
989
989
990
991
993
996
998
998
1000
1002
1003
1004
1001
1000
999
996
997
995
996
996
994
997
1000
998
995
991
985
979
975
971
967
958
953
950
949
950
948
946
945
946
945
945
945
946
945
947
949
950
948
948
946
950
949
951
951
949
950
951
951
951
951
951
951
953
954
957
954
953
953
956
958
957
957
957
957
961
963
962
962
957
956
955
952
951
948
948
955
974
999
1027
1056
1077
1091
1107
1126
1150
1178
1205
1227
1250
1268
1279
1282
1275
1273
1267
1251
1220
1187
1158
1136
1117
1095
1062
1024
983
946
918
892
870
855
842
836
834
834
837
839
837
837
840
849
857
864
869
871
878
884
887
891
894
898
903
909
910
914
913
910
912
914
913
914
911
909
912
912
914
911
910
909
909
910
908
905
902
904
905
904
903
902
899
900
900
901
902
904
902
903
905
908
911
910
910
912
915
919
924
923
924
926
929
937
941
944
946
947
954
957
961
962
963
967
972
977
980
980
982
985
987
993
996
996
996
999
1003
1008
1007
1010
1007
1009
1009
1012
1015
1014
1009
1009
1010
1013
1012
1010
1007
1006
1006
1005
1007
1004
1001
999
1002
1001
1002
1000
1000
1000
1002
1006
1005
1003
1000
1002
1005
1004
1007
1005
1004
1005
1012
1011
1012
1011
1009
1007
1010
1010
1008
1006
1003
1006
1006
1009
1009
1010
1008
1005
1006
1004
996
987
980
976
973
969
966
959
953
953
955
955
956
955
952
952
954
958
955
957
956
952
955
958
959
958
957
956
958
959
960
958
961
959
960
963
964
960
958
957
962
964
964
962
962
962
962
965
964
964
963
965
965
967
965
964
959
956
955
955
961
973
994
1024
1054
1082
1102
1116
1136
1158
1187
1217
1245
1266
1286
1303
1312
1320
1315
1310
1296
1274
1245
1215
1188
1162
1135
1106
1074
1039
1000
962
927
898
877
862
848
838
834
831
835
835
840
837
838
844
853
861
870
875
877
878
884
892
899
902
905
908
912
914
916
915
914
912
914
915
913
914
913
911
912
915
915
912
909
906
908
909
908
908
905
905
904
906
906
908
904
902
905
905
905
906
904
903
904
907
908
907
908
908
911
914
917
919
918
921
924
930
932
933
934
936
942
947
949
952
954
957
960
965
969
971
974
973
981
986
990
993
996
998
998
1004
1006
1006
1006
1007
1009
1010
1012
1013
1013
1012
1014
1017
1015
1016
1014
1013
1014
1012
1011
1012
1009
1009
1007
1008
1007
1007
1004
1003
1001
1003
1003
1004
1002
1003
1008
1009
1009
1008
1006
1003
1004
1003
1005
1003
1002
1002
1006
1010
1013
1012
1011
1009
1012
1012
1009
1007
1004
1003
1005
1008
1008
1009
1007
1007
1009
1006
1000
993
985
979
973
972
969
963
958
955
955
958
955
955
954
954
955
959
958
958
954
954
956
960
961
960
958
958
959
962
962
960
961
960
962
964
964
964
960
961
964
965
967
967
966
963
966
967
968
968
965
965
968
965
964
958
953
948
956
966
989
1018
1047
1073
1097
1117
1132
1155
1181
1212
1242
1272
1298
1319
1326
1328
1323
1322
1310
1281
1242
1206
1178
1151
1122
1088
1048
1003
967
933
906
879
859
845
836
830
828
826
826
829
831
830
836
845
852
859
866
873
877
880
882
886
893
898
903
904
907
905
905
907
908
907
907
904
905
905
905
903
902
899
902
901
900
899
895
893
893
894
895
891
893
889
891
893
895
892
891
890
892
896
894
894
896
895
898
897
901
901
901
901
905
907
913
917
916
918
923
927
930
931
934
935
942
949
952
956
956
960
964
966
971
974
975
977
984
987
991
993
996
994
998
1001
1004
1005
1006
1005
1006
1009
1008
1008
1005
1006
1007
1008
1007
1006
1004
1001
1004
1004
1005
1003
1000
998
998
999
999
998
990
992
994
997
997
998
1000
997
1001
1000
1000
997
998
994
995
996
998
997
999
999
1001
1003
1003
1002
1000
997
997
998
997
997
995
993
995
998
1000
999
998
995
992
991
986
979
974
967
968
965
963
956
951
950
952
953
951
951
950
949
947
950
951
949
945
946
947
951
951
950
950
949
950
954
956
954
951
954
955
957
958
959
956
955
959
959
960
962
961
957
963
962
966
965
964
962
963
963
959
956
950
951
953
961
980
1008
1034
1063
1089
1112
1128
1149
1176
1209
1237
1268
1294
1313
1326
1332
1336
1334
1327
1307
1281
1245
1206
1175
1146
1115
1078
1037
997
955
921
888
862
843
831
824
822
822
823
827
828
831
834
842
847
858
865
871
874
879
882
884
893
898
902
905
907
905
908
908
908
907
906
900
902
902
901
899
896
894
894
895
896
893
890
887
888
892
891
890
887
887
888
891
889
887
888
887
889
892
895
896
895
897
899
902
906
908
908
911
914
919
921
924
926
928
934
939
944
943
946
949
954
957
961
962
966
972
974
980
983
983
988
989
993
997
999
1000
1000
999
1002
1006
1008
1006
1005
1006
1005
1006
1007
1001
1001
1000
996
1002
998
998
994
993
993
992
993
989
990
986
989
990
992
992
991
992
993
993
995
994
991
990
991
991
990
989
991
991
994
999
1001
999
996
995
995
995
996
993
991
990
992
993
994
993
994
993
996
999
996
992
984
977
971
971
969
963
960
954
951
952
952
951
951
945
947
950
951
948
948
947
949
949
951
949
947
945
948
950
951
950
948
948
949
950
952
953
953
951
955
956
957
958
954
954
956
958
958
960
959
958
961
963
965
965
964
961
962
964
962
958
957
958
966
982
1008
1034
1061
1086
1112
1130
1148
1169
1197
1222
1246
1271
1294
1305
1310
1308
1307
1303
1289
1264
1232
1191
1167
1141
1118
1087
1059
1020
984
949
919
889
865
846
835
829
823
823
823
825
827
830
831
834
840
850
857
865
871
873
873
878
886
892
896
898
901
901
904
907
909
907
905
905
907
909
908
906
903
903
901
902
903
902
898
896
898
898
896
894
896
894
892
895
895
892
894
892
894
896
895
896
896
896
897
901
901
902
902
903
907
910
915
917
917
920
922
928
931
934
936
936
940
947
950
951
952
953
958
964
967
968
973
973
976
979
983
983
987
988
993
996
1000
1000
998
999
1003
1005
1007
1007
1006
1006
1006
1008
1010
1008
1007
1004
1003
1007
1006
1004
1001
999
997
996
996
993
993
990
991
994
991
992
991
988
993
997
996
994
995
994
995
996
996
993
991
992
996
1001
1005
1005
1004
1004
1004
1005
1006
1006
1002
1000
1002
1004
1001
1002
999
999
1003
1005
1004
1000
997
990
984
983
976
971
968
963
962
962
959
955
955
954
954
955
956
955
953
953
953
954
957
955
956
954
956
959
959
958
956
954
957
959
961
958
954
955
957
961
962
962
962
959
960
963
964
965
963
962
965
963
967
966
964
966
968
969
970
970
968
965
962
960
959
961
967
981
1009
1037
1061
1083
1102
1114
1128
1149
1174
1199
1223
1242
1265
1283
1290
1293
1290
1284
1279
1267
1242
1208
1179
1155
1141
1117
1091
1061
1025
989
961
935
909
887
869
854
848
846
846
844
845
843
845
849
856
864
870
877
881
884
891
896
898
903
908
913
916
917
918
917
919
921
922
920
919
917
917
917
917
917
915
912
911
914
915
913
909
910
908
910
909
908
906
904
905
907
908
906
904
907
908
910
910
911
911
913
916
921
922
924
926
927
933
938
940
944
945
947
950
956
960
965
964
969
973
978
981
982
987
987
992
995
996
1000
1000
1004
1007
1010
1013
1014
1011
1013
1014
1016
1018
1017
1015
1010
1013
1014
1013
1014
1013
1009
1010
1010
1010
1010
1007
1005
1005
1005
1003
1003
999
997
998
1003
1004
1004
1004
1003
1003
1005
1005
1004
1005
999
1003
1011
1010
1011
1012
1012
1012
1013
1014
1014
1010
1008
1007
1010
1010
1011
1011
1010
1011
1011
1010
1006
995
987
983
979
974
970
965
961
961
961
962
961
959
956
958
960
960
961
958
959
960
962
964
963
962
961
964
962
963
966
964
963
962
965
968
967
963
962
964
967
966
966
965
965
967
970
969
969
971
968
972
973
972
972
970
965
964
962
963
963
966
982
1009
1034
1062
1087
1105
1120
1145
1174
1204
1233
1253
1276
1297
1308
1312
1312
1308
1297
1280
1252
1219
1187
1161
1135
1108
1081
1049
1011
976
943
914
887
869
856
847
840
841
842
847
848
844
844
854
864
873
877
884
885
891
897
901
902
906
907
913
918
920
919
918
915
916
918
917
915
913
912
913
913
915
912
910
908
909
908
909
908
905
904
905
905
904
907
904
902
904
906
906
906
903
905
908
910
910
912
915
915
915
921
925
927
928
928
935
941
945
945
948
951
955
963
965
969
972
973
979
985
988
992
994
995
998
1002
1004
1005
1006
1007
1007
1011
1012
1012
1012
1010
1010
1011
1011
1012
1010
1008
1008
1006
1006
1003
1003
998
1000
999
999
998
995
995
993
996
1000
999
1000
999
999
998
1000
999
999
993
999
1000
1006
1004
1006
1005
1005
1006
1006
1004
1000
999
1002
1002
1007
1006
1006
1003
1000
1001
996
987
979
974
971
967
963
958
956
954
955
955
954
954
951
952
954
956
959
958
956
955
956
959
958
960
958
958
961
962
963
963
962
958
962
963
967
967
964
963
967
968
968
967
964
967
967
970
970
966
965
959
955
958
961
970
989
1017
1050
1077
1102
1118
1133
1157
1189
1223
1252
1277
1297
1309
1321
1323
1326
1315
1298
1273
1238
1205
1179
1151
1122
1085
1048
1006
969
937
903
874
859
846
839
834
831
831
836
840
839
842
849
858
868
876
881
882
885
888
895
902
909
910
912
910
913
914
915
913
913
909
908
909
911
911
907
903
905
906
906
902
900
898
899
901
902
901
897
894
898
899
898
898
898
896
898
900
902
903
901
899
903
907
911
910
914
914
919
921
925
930
932
932
939
943
948
951
954
956
962
968
971
977
978
980
986
991
995
999
1000
1001
1006
1009
1012
1013
1010
1010
1012
1013
1014
1012
1011
1008
1012
1012
1013
1009
1006
1005
1006
1005
1004
1000
998
996
996
997
997
997
998
997
1000
1002
1003
1001
999
997
999
999
999
1001
1000
1004
1005
1006
1007
1005
1003
1001
1001
1002
1002
1001
1001
1000
1001
1006
1006
1003
998
990
984
982
977
970
966
961
959
959
960
956
955
952
955
954
957
955
956
952
952
955
954
957
954
954
954
955
960
960
959
957
959
960
960
961
961
958
960
960
962
962
961
964
966
967
967
967
968
967
967
969
969
966
962
956
954
955
958
963
980
1004
1032
1064
1090
1111
1126
1144
1177
1213
1244
1274
1296
1314
1325
1332
1335
1325
1314
1292
1253
1214
1184
1156
1126
1093
1056
1016
973
939
904
876
854
844
832
829
823
825
826
832
831
833
837
844
854
865
871
876
879
881
887
896
901
904
905
906
908
910
911
910
909
905
905
906
908
904
901
900
900
901
900
900
899
892
894
897
896
896
894
891
891
892
891
890
892
891
893
896
898
898
895
894
898
900
904
902
907
905
910
915
917
922
920
923
928
932
938
938
943
942
948
956
960
962
966
966
970
975
981
982
982
985
988
993
997
1000
999
1000
1004
1007
1009
1008
1008
1006
1006
1007
1009
1006
1004
1000
1001
1001
1003
1002
998
996
995
996
996
994
990
987
989
992
992
991
991
990
995
994
993
992
990
988
991
993
995
997
997
998
1003
1003
1003
1003
1000
996
996
996
996
996
996
997
999
1000
1001
995
989
980
973
972
968
962
957
955
953
954
954
953
951
948
948
951
954
957
952
952
954
954
955
954
952
952
953
956
957
958
956
954
955
958
960
957
957
956
958
960
962
961
960
959
961
964
966
967
965
964
965
966
970
966
962
958
958
967
978
997
1023
1054
1082
1108
1129
1144
1162
1186
1214
1243
1268
1291
1304
1308
1309
1311
1300
1283
1254
1214
1180
1154
1126
1103
1073
1035
996
961
928
897
871
852
840
833
830
831
830
830
831
834
840
846
853
858
867
874
880
881
884
888
895
901
904
905
908
907
909
913
910
911
909
908
908
909
908
910
906
903
900
906
907
904
905
901
901
903
903
902
901
896
897
899
900
898
899
895
899
901
901
902
901
900
903
904
907
909
911
911
915
922
922
925
927
927
931
933
941
944
944
945
949
954
958
960
960
964
967
971
976
977
979
979
983
991
994
996
993
995
998
1002
1003
1005
1005
1000
1003
1003
1008
1008
1006
1005
1006
1008
1008
1007
1005
1001
1002
1000
1003
1000
996
994
994
993
993
990
989
986
988
992
996
995
993
990
992
993
996
993
993
990
989
993
998
1000
1001
1005
1005
1006
1008
1003
1002
999
1000
1000
1003
1002
1002
998
1001
1004
1004
1002
998
991
985
981
977
972
967
959
957
958
956
958
956
952
954
953
958
955
955
951
955
958
959
959
958
955
959
960
959
959
958
955
959
962
962
961
960
958
959
963
963
963
963
961
961
965
967
967
967
964
969
971
971
971
969
965
970
968
964
964
964
971
984
1009
1035
1062
1085
1103
1117
1132
1151
1176
1199
1219
1241
1260
1274
1277
1280
1274
1269
1259
1244
1211
1181
1154
1133
1117
1091
1064
1029
989
957
931
905
885
870
858
851
847
846
847
847
847
848
849
856
861
867
874
878
883
887
892
894
896
904
910
912
915
914
915
919
923
922
922
920
918
919
920
922
919
918
915
916
919
918
917
915
911
914
915
917
915
912
911
912
912
913
910
909
906
907
910
912
914
913
913
918
919
922
921
922
922
927
929
934
934
937
937
941
947
950
952
952
955
959
963
968
970
971
975
976
985
986
988
988
988
993
996
1000
1002
1002
1002
1007
1010
1014
1012
1013
1013
1016
1017
1017
1019
1017
1014
1014
1018
1017
1015
1013
1011
1011
1011
1012
1010
1010
1006
1008
1007
1007
1006
1004
1002
1004
1004
1005
1004
1004
1000
1007
1007
1009
1008
1004
1002
1001
1006
1008
1005
1007
1006
1010
1013
1016
1016
1013
1012
1013
1013
1014
1011
1008
1008
1011
1011
1015
1014
1013
1012
1010
1010
1009
1002
995
986
983
980
978
972
968
962
962
963
965
963
961
960
960
962
965
963
962
960
960
962
964
965
965
963
965
965
969
967
965
965
967
966
970
968
968
965
967
968
970
971
969
968
969
970
972
972
972
972
974
975
976
975
971
968
963
964
965
966
974
992
1026
1054
1086
1102
1114
1130
1163
1195
1222
1250
1271
1283
1293
1295
1297
1289
1267
1237
1201
1176
1157
1134
1105
1072
1037
1004
972
940
912
887
873
862
855
852
848
847
852
854
856
858
862
866
876
882
889
891
894
896
903
905
913
915
918
917
920
923
925
925
923
921
922
920
921
921
919
915
916
917
917
916
915
912
912
914
915
913
910
908
909
912
913
912
911
909
910
913
914
914
913
908
915
916
921
919
921
921
925
928
931
932
934
935
940
944
947
949
952
954
957
962
967
970
969
973
976
981
985
987
990
990
995
998
1000
1002
1003
1005
1005
1010
1013
1012
1012
1011
1013
1015
1013
1015
1013
1011
1009
1013
1015
1013
1011
1011
1011
1010
1011
1010
1008
1004
1004
1005
1004
1003
1002
999
999
1002
1005
1006
1004
1003
1004
1006
1005
1004
1003
1001
1003
1003
1005
1005
1005
1005
1007
1012
1014
1012
1010
1009
1008
1009
1008
1004
1002
1002
1006
1006
1008
1007
1006
1006
1008
1008
1004
999
994
985
982
980
976
971
968
964
962
961
963
960
959
956
956
960
962
962
959
956
959
960
963
964
959
956
960
962
963
965
963
962
965
965
967
965
966
965
967
968
969
969
965
965
969
971
973
970
972
969
970
972
974
974
970
968
964
965
961
961
964
973
996
1019
1046
1072
1090
1108
1126
1149
1182
1208
1237
1262
1286
1303
1313
1315
1311
1300
1285
1258
1223
1185
1157
1130
1101
1072
1036
995
958
927
902
882
866
853
844
840
843
845
846
848
847
849
861
872
879
887
890
890
897
904
910
915
919
919
921
920
923
924
918
916
919
920
917
916
914
911
912
914
913
914
911
908
909
911
911
909
908
906
907
909
910
908
906
907
907
907
911
912
910
910
913
916
918
917
919
918
922
924
926
931
931
932
936
941
945
947
950
952
955
961
965
969
970
971
976
982
986
989
988
990
996
998
1003
1007
1006
1007
1011
1012
1016
1015
1016
1015
1015
1017
1018
1017
1014
1012
1012
1013
1015
1011
1009
1008
1008
1006
1008
1004
1006
1002
1001
1002
1004
1001
1001
999
1001
1005
1003
1008
1008
1003
1006
1007
1009
1006
1005
1000
1004
1008
1012
1013
1012
1011
1010
1014
1014
1010
1005
1002
1006
1008
1010
1009
1008
1008
1009
1010
1012
1006
999
993
987
985
981
977
973
967
963
964
965
964
961
957
959
960
962
961
959
956
958
960
961
962
959
957
957
960
961
962
961
961
960
964
964
963
963
961
963
965
967
966
967
964
966
968
972
971
968
969
971
972
973
971
970
970
968
970
966
964
960
957
959
969
988
1013
1038
1062
1086
1104
1122
1140
1162
1191
1222
1251
1278
1299
1309
1315
1316
1317
1310
1294
1267
1226
1191
1165
1137
1109
1074
1032
994
958
925
900
873
856
847
842
838
836
835
837
839
841
842
846
854
859
869
876
882
886
888
891
898
902
907
912
911
913
914
914
919
918
917
914
914
915
915
914
910
908
909
910
911
907
905
904
902
904
903
900
899
899
899
900
899
899
897
896
899
900
901
901
902
900
902
908
910
910
910
910
913
917
920
924
926
924
929
932
938
938
939
940
944
947
951
955
954
956
962
966
972
973
975
975
981
987
989
991
993
992
994
999
1000
1005
1003
1003
1002
1006
1006
1004
1004
1000
1006
1007
1007
1005
1004
999
1002
1000
1001
999
998
995
995
994
995
991
989
987
987
988
990
991
991
991
991
993
991
993
993
989
992
991
989
991
989
992
995
1001
1002
1002
1001
995
999
999
999
999
996
993
994
993
992
988
985
982
976
973
968
962
950
939
932
926
926
930
941
956
971
981
986
995
1007
1029
1057
1088
1116
1136
1143
1123
1090
1045
998
940
882
838
811
787
774
764
753
745
737
722
707
703
705
708
713
716
718
719
726
730
737
745
755
761
771
779
792
802
816
827
837
848
859
871
885
896
904
910
923
933
943
949
953
955
957
962
971
973
978
974
978
983
986
987
989
989
991
994
994
995
995
994
995
999
1002
1003
1005
1005
1010
1014
1016
1018
1020
1022
1026
1029
1035
1036
1038
1039
1045
1048
1052
1056
1059
1057
1062
1066
1071
1076
1078
1075
1080
1086
1088
1091
1092
1091
1095
1097
1099
1101
1101
1100
1103
1100
1103
1102
1101
1099
1102
1103
1103
1101
1096
1091
1092
1090
1090
1087
1082
1077
1075
1074
1075
1069
1065
1060
1057
1057
1057
1053
1047
1043
1038
1040
1037
1036
1032
1026
1025
1026
1025
1023
1019
1013
1016
1013
1012
1013
1005
1002
1002
1003
1001
997
993
990
991
995
995
992
989
986
986
987
988
988
983
981
982
982
982
980
979
979
976
980
979
979
978
975
975
977
978
975
977
975
972
975
973
972
973
971
971
975
979
979
979
979
982
984
985
985
983
984
984
989
988
992
994
993
996
1000
1002
1002
999
994
995
996
998
999
998
995
995
998
1000
995
989
980
976
972
971
964
960
954
954
952
956
955
951
949
951
952
954
955
953
950
954
953
953
953
956
951
953
955
957
956
954
953
954
952
955
956
955
954
955
956
958
960
956
956
958
960
961
964
961
959
961
964
964
964
963
959
956
960
965
975
995
1026
1057
1085
1102
1120
1133
1153
1183
1208
1231
1249
1265
1268
1274
1272
1268
1256
1236
1203
1173
1150
1128
1106
1080
1046
1008
975
945
917
890
867
849
839
838
834
832
830
833
836
837
842
845
851
859
865
871
874
875
879
885
892
898
901
901
901
906
906
910
909
908
906
905
906
908
904
904
901
905
905
906
903
901
899
899
901
902
902
900
898
896
899
897
901
898
898
901
900
903
904
902
903
905
908
912
911
911
913
915
919
926
924
923
929
935
938
942
945
946
946
950
957
960
962
964
