868
868
868
868
868
868
868
868
868
869
873
873
875
875
871
872
875
875
872
872
874
877
883
885
886
883
879
880
884
891
895
902
905
908
914
920
917
916
914
915
917
916
915
912
909
907
908
908
906
903
903
903
902
902
895
887
886
881
884
881
877
873
866
869
865
867
865
862
868
871
873
876
876
867
859
856
846
839
832
831
834
850
878
913
955
996
1034
1071
1106
1138
1165
1184
1193
1195
1193
1185
1170
1154
1130
1092
1037
972
913
875
860
861
873
884
890
890
885
876
870
856
851
852
855
860
862
858
853
853
856
855
858
856
854
856
861
864
862
860
854
852
856
858
857
856
855
857
863
864
864
863
860
858
859
862
856
851
851
853
860
864
870
867
868
865
866
866
864
860
860
864
871
881
878
876
873
871
870
873
871
871
872
872
876
880
881
879
879
880
880
881
877
876
873
877
879
880
880
873
870
870
876
876
877
873
872
872
871
875
878
874
876
876
875
880
872
867
868
867
873
874
873
870
868
870
871
869
865
863
858
860
864
867
867
864
863
862
859
859
854
850
848
852
854
856
857
853
853
854
856
855
853
851
851
856
859
860
862
860
862
869
866
867
864
861
866
873
880
882
887
886
890
893
899
902
898
898
897
898
902
903
901
899
899
896
898
893
891
886
887
887
889
888
883
876
873
871
866
864
858
854
853
855
856
856
853
853
851
853
853
854
849
848
844
842
839
829
817
810
810
820
841
863
889
926
968
1010
1051
1087
1120
1147
1167
1182
1183
1178
1166
1151
1134
1109
1062
997
934
886
858
850
850
856
864
866
869
868
860
851
846
841
840
838
841
837
834
830
833
837
840
840
839
843
843
846
843
841
838
829
835
837
843
843
841
841
839
841
842
840
837
839
838
840
847
848
843
844
843
846
850
850
845
841
841
845
849
851
854
854
847
854
857
858
856
852
849
854
856
860
862
859
859
862
861
866
860
857
857
862
866
870
869
869
867
864
865
866
866
861
860
859
861
867
866
866
864
861
861
861
860
856
854
853
853
856
860
861
858
856
855
854
856
853
850
849
854
857
858
859
852
846
849
849
847
849
845
844
841
841
848
845
840
839
836
836
835
834
832
833
836
838
840
840
838
838
839
840
840
839
839
843
850
855
859
857
852
854
857
865
870
872
874
874
880
888
891
892
890
884
886
886
885
884
877
875
877
880
880
882
881
876
874
871
864
856
849
847
844
848
849
847
846
843
839
839
837
836
835
830
833
834
843
840
838
831
824
817
810
799
793
792
804
828
860
898
937
974
1012
1041
1077
1108
1133
1149
1159
1166
1167
1160
1151
1135
1114
1073
1027
969
912
872
845
835
839
853
861
861
854
839
835
831
825
821
820
818
821
827
826
826
820
817
818
818
824
825
824
823
825
830
834
832
823
821
820
821
822
825
826
826
824
828
830
835
831
827
828
828
829
829
832
832
836
837
836
838
830
831
830
833
835
837
836
838
844
848
848
844
843
837
836
837
836
839
846
848
851
852
853
850
845
846
845
846
847
848
847
845
844
850
854
854
851
846
849
846
847
844
850
847
848
845
848
848
843
838
837
839
840
844
845
844
842
842
841
842
839
834
833
831
830
832
836
837
837
835
836
835
834
830
825
824
822
822
822
819
824
824
825
828
826
824
820
821
819
823
827
827
827
830
829
834
833
834
833
833
834
838
843
845
849
852
855
862
862
864
863
865
866
873
874
876
875
870
871
870
871
872
866
862
860
863
865
867
867
865
857
852
848
844
842
841
836
829
833
833
836
839
833
829
828
822
823
824
823
826
826
826
822
815
804
789
784
784
790
802
822
851
888
931
971
1006
1037
1066
1094
1124
1145
1157
1164
1163
1156
1150
1131
1105
1054
992
930
886
856
845
839
844
852
863
864
862
849
834
824
820
815
814
811
811
812
814
821
822
821
813
815
817
817
819
818
818
818
820
820
824
819
819
815
814
815
816
818
818
821
822
824
822
817
816
819
824
825
821
819
820
823
827
830
829
821
820
821
822
827
832
831
832
830
834
834
836
831
831
837
842
839
835
834
834
834
844
844
846
846
841
846
846
845
847
842
840
843
843
847
850
844
839
841
839
837
834
831
832
834
839
846
849
845
843
840
841
837
834
834
834
837
839
834
835
839
839
839
837
832
830
829
826
830
826
826
823
826
830
829
827
821
822
821
824
824
827
825
834
837
839
839
836
835
836
839
852
858
859
857
866
871
873
874
872
867
870
870
873
875
875
869
869
868
869
867
862
858
856
856
856
854
851
844
842
840
839
838
832
826
823
821
822
823
827
828
832
834
832
828
812
802
794
786
779
788
804
831
861
899
937
974
1009
1044
1076
1108
1133
1149
1160
1163
1163
1151
1132
1102
1062
1011
950
896
856
832
828
836
849
859
861
855
847
837
828
820
816
812
811
820
822
820
817
812
811
812
817
820
821
822
825
826
825
823
817
818
817
817
818
816
816
821
822
825
827
824
819
818
819
819
819
819
819
823
830
832
832
827
824
819
824
826
827
828
829
833
838
841
838
835
834
833
835
835
835
830
832
837
840
843
843
841
840
841
843
838
838
835
838
843
848
851
846
842
838
841
839
841
836
836
836
836
843
845
842
842
835
833
835
836
830
833
835
838
839
840
836
838
834
834
832
832
829
827
826
829
832
832
831
824
820
823
822
821
818
815
818
821
824
826
825
824
821
820
822
824
822
820
821
821
827
829
830
827
830
828
831
833
831
831
833
837
841
840
841
841
845
850
855
857
860
860
862
870
874
873
872
872
868
868
866
858
856
855
853
861
861
859
857
853
848
844
838
830
830
829
831
830
828
826
824
822
823
823
820
818
818
823
821
824
822
814
802
791
785
781
784
792
812
845
886
931
966
1001
1034
1069
1097
1123
1140
1145
1150
1147
1145
1139
1128
1107
1071
1013
950
893
851
827
817
819
838
848
852
847
843
832
824
816
811
804
802
805
805
811
815
813
812
809
810
813
812
809
806
808
811
815
815
816
815
813
816
817
813
808
807
808
814
816
815
816
815
816
819
820
820
819
819
820
820
828
828
828
826
824
826
828
825
825
822
824
826
830
831
834
833
831
832
838
835
834
830
832
836
842
842
842
840
840
843
842
840
837
831
833
837
838
839
837
837
837
837
832
827
828
830
829
836
835
836
835
835
834
833
833
831
825
822
825
831
833
834
830
828
826
830
826
821
820
816
818
819
821
821
819
820
820
819
818
815
808
807
807
811
814
817
818
817
819
821
819
815
813
811
815
816
822
820
825
828
831
834
831
833
830
833
839
848
849
853
856
864
867
871
869
864
863
866
865
866
863
863
861
863
863
860
857
850
848
848
847
845
838
834
829
832
833
830
825
822
820
817
818
821
821
820
817
819
819
824
822
817
810
807
806
799
793
783
782
788
810
840
875
914
953
990
1029
1066
1100
1126
1144
1154
1161
1158
1149
1134
1117
1095
1058
1000
940
881
843
824
823
832
841
846
842
837
829
819
814
809
806
806
810
812
811
806
805
804
808
810
811
811
814
809
811
816
817
816
811
809
809
814
816
817
813
809
815
816
815
816
812
810
812
815
824
824
817
817
819
821
823
822
818
816
816
820
827
829
831
830
828
828
832
830
830
831
831
831
834
837
841
837
839
840
838
839
836
834
837
840
843
847
844
843
842
842
847
843
839
838
835
836
842
846
840
840
839
840
839
838
837
834
831
829
835
839
839
835
836
836
835
836
834
829
827
824
830
832
834
836
831
830
830
828
828
821
818
817
819
824
825
826
824
817
816
817
820
816
820
816
816
817
823
826
823
819
819
821
824
824
824
822
825
830
837
839
838
836
835
836
839
840
843
843
847
855
863
869
871
871
870
869
870
872
875
872
866
869
870
872
871
865
858
855
856
859
858
856
850
845
844
843
843
839
834
828
822
824
825
827
825
820
820
821
824
828
830
825
821
819
818
821
817
809
800
791
788
791
804
822
854
894
938
984
1024
1064
1105
1133
1154
1165
1169
1160
1151
1138
1125
1107
1077
1029
969
914
874
851
839
836
840
847
852
849
849
837
828
822
818
818
817
815
813
810
811
812
815
814
816
818
817
819
819
819
817
814
813
817
822
819
821
820
819
821
823
823
821
820
816
820
821
826
828
828
827
828
830
830
826
826
827
832
835
835
836
839
839
840
840
838
835
836
837
839
841
842
843
844
847
847
844
844
840
844
846
851
852
853
848
854
859
858
857
849
847
847
850
851
851
853
850
854
852
853
854
849
847
843
842
845
850
850
849
847
847
846
849
850
844
840
837
841
843
848
848
842
841
840
841
839
833
835
832
831
832
837
833
831
826
827
828
826
823
824
822
823
825
826
828
826
827
831
831
829
824
827
828
831
834
835
838
842
843
848
847
845
842
843
847
855
862
864
865
872
874
880
882
884
882
881
883
882
881
880
877
874
874
875
873
870
865
865
864
861
863
856
854
849
845
847
844
841
837
837
836
838
835
836
837
839
839
836
833
831
827
821
809
802
792
794
810
832
859
895
935
974
1012
1048
1082
1118
1145
1166
1177
1178
1169
1157
1140
1121
1090
1039
983
924
881
858
847
854
862
868
870
864
856
848
839
833
828
825
821
823
827
826
827
824
822
821
822
826
830
826
829
831
834
834
832
829
826
826
828
830
829
827
827
835
834
834
832
830
829
831
836
834
835
832
836
841
844
841
840
836
838
835
836
838
839
842
841
842
848
850
848
845
845
847
849
849
851
851
854
858
860
858
857
855
854
856
858
861
857
856
855
859
862
862
861
854
852
850
850
855
855
858
852
853
856
856
854
850
847
849
849
847
849
852
851
852
851
854
851
848
847
845
847
847
845
841
845
846
848
846
838
836
832
832
829
834
832
830
829
829
830
833
833
831
826
828
829
832
834
834
832
835
833
836
839
839
835
829
833
835
841
845
847
848
852
853
855
852
846
847
847
856
863
870
875
875
879
883
886
883
881
879
879
881
883
884
881
881
877
876
876
870
868
865
862
859
858
854
847
847
847
848
846
836
830
832
834
835
837
839
834
837
836
840
839
830
826
821
817
809
800
800
803
819
840
873
907
941
972
1003
1032
1065
1102
1130
1153
1166
1171
1171
1165
1151
1135
1116
1089
1049
1004
950
904
871
852
851
856
864
869
867
860
848
840
838
832
826
826
821
824
826
823
822
822
821
824
832
834
833
834
832
832
830
824
823
822
825
828
836
833
834
830
828
832
832
836
834
829
830
833
839
839
840
837
837
836
839
837
835
834
836
838
841
847
849
847
849
846
845
846
844
842
842
845
847
855
858
855
854
854
853
857
858
856
853
851
857
860
865
862
859
858
860
863
856
854
854
856
860
862
859
857
856
854
852
853
849
848
848
852
855
855
853
851
851
851
852
850
846
842
845
846
850
848
846
845
841
844
839
837
834
832
834
832
836
836
836
835
835
834
835
832
826
828
830
834
837
837
837
833
833
834
837
836
837
836
835
843
844
844
846
849
850
854
854
854
853
853
858
864
869
874
878
889
890
890
885
887
884
888
890
888
884
886
883
883
882
880
875
873
873
873
868
862
857
856
857
857
855
852
846
843
841
842
843
840
840
844
845
846
849
845
840
835
831
827
823
813
804
803
812
827
856
886
924
964
1003
1045
1083
1115
1148
1165
1179
1183
1174
1161
1139
1115
1079
1025
962
908
869
851
855
861
866
870
868
864
855
847
837
829
829
830
835
832
831
830
827
828
827
829
831
832
832
836
838
840
840
835
833
831
834
834
833
835
834
840
843
845
844
840
836
835
837
840
840
838
837
839
844
846
846
845
841
844
845
846
844
843
846
850
854
855
852
850
847
854
853
852
854
852
854
854
861
859
858
857
856
859
861
857
859
856
861
864
869
866
862
858
852
856
861
860
852
853
854
856
862
865
859
855
851
852
856
854
855
852
851
854
858
861
859
853
849
847
847
848
848
850
847
847
849
851
850
847
842
839
837
835
836
832
833
834
837
837
838
836
829
825
828
829
832
835
833
835
836
838
843
841
836
837
836
839
840
842
841
837
840
844
849
848
851
847
847
848
849
852
855
858
861
868
873
882
880
877
878
878
885
888
886
884
886
891
890
884
879
870
870
872
873
871
874
869
864
859
855
852
848
842
842
841
843
843
842
836
836
839
841
839
839
836
836
834
835
835
828
821
816
808
805
808
820
840
871
912
954
989
1027
1059
1087
1119
1145
1164
1176
1174
1169
1159
1153
1137
1118
1078
1023
962
913
878
854
843
851
858
868
871
870
858
843
839
834
833
829
822
820
818
821
823
824
827
826
826
828
830
828
827
826
823
827
828
831
835
830
830
832
835
831
832
827
825
829
832
836
835
837
837
839
843
836
834
832
829
834
837
838
840
840
842
848
850
851
843
841
839
840
846
847
849
847
850
853
855
851
846
846
848
851
852
853
854
856
858
858
861
860
856
852
851
851
856
859
859
858
856
854
856
854
851
848
847
848
851
849
848
846
850
850
853
851
847
844
842
844
848
843
843
841
844
846
842
839
836
833
834
832
836
832
831
827
834
834
833
829
827
824
824
827
827
830
827
826
829
830
832
831
828
824
822
828
829
831
833
831
834
839
840
839
836
833
836
841
845
848
849
851
847
853
856
859
858
859
864
871
876
880
884
884
885
888
889
882
876
870
868
874
875
873
870
874
875
870
862
854
849
848
846
842
839
838
843
843
846
842
840
834
832
834
836
836
832
830
832
835
832
825
815
804
793
795
804
819
845
875
911
956
996
1035
1068
1096
1121
1147
1167
1176
1174
1166
1157
1145
1131
1102
1054
994
934
888
858
849
850
858
865
871
874
867
857
843
832
826
822
822
822
823
820
822
825
827
828
826
826
823
824
823
823
824
822
822
826
830
831
828
824
824
827
827
831
832
829
830
831
833
835
833
829
829
830
832
834
836
834
834
837
843
843
843
840
836
839
839
844
843
842
844
845
848
847
846
842
840
845
844
850
851
850
847
853
856
856
855
853
846
847
849
849
852
852
852
855
854
853
854
848
846
843
846
846
849
847
845
846
851
846
844
844
841
842
842
843
848
845
839
838
839
841
844
841
837
838
836
838
838
838
835
834
833
834
833
829
825
823
824
826
828
826
826
829
827
825
829
824
821
821
824
830
833
833
831
832
834
837
838
831
829
829
830
831
833
834
835
838
840
845
843
841
841
842
843
845
854
858
863
869
876
880
878
876
878
875
879
882
886
885
879
880
880
879
877
872
866
864
866
866
868
865
857
855
851
849
850
847
841
836
834
836
840
841
838
835
836
835
836
836
832
832
824
825
824
823
817
806
795
789
794
810
831
857
891
932
980
1019
1057
1086
1117
1142
1162
1170
1169
1161
1145
1130
1109
1072
1016
957
906
867
850
845
849
857
860
859
854
847
838
830
826
822
823
822
820
814
816
818
820
825
824
824
822
822
824
825
819
816
817
818
824
827
826
825
822
825
826
827
824
822
821
820
823
828
831
831
830
829
831
829
828
828
825
828
830
836
836
837
831
832
836
837
838
834
834
833
838
844
843
843
842
841
842
844
846
843
839
840
846
846
850
851
849
846
847
848
847
847
845
842
843
846
848
847
845
842
842
842
839
840
839
832
836
840
844
846
839
839
837
836
838
839
836
833
831
835
841
840
841
836
834
832
832
834
829
824
820
825
829
833
833
827
823
822
820
822
819
819
819
817
823
826
824
822
821
818
820
823
824
822
819
821
826
831
831
831
823
824
824
826
823
828
826
826
832
838
841
840
834
837
838
839
842
844
846
851
859
866
869
873
873
874
873
874
874
871
870
872
874
873
872
868
865
862
857
859
860
859
854
848
846
844
845
838
835
828
828
826
828
828
823
825
827
832
838
833
829
825
825
824
822
811
804
794
789
787
791
802
816
839
868
909
948
987
1023
1053
1086
1120
1143
1161
1163
1163
1155
1141
1130
1113
1082
1036
976
921
879
853
841
841
843
851
856
855
846
836
825
820
817
817
815
811
807
807
810
811
814
813
812
818
819
819
817
812
810
813
813
813
813
814
816
820
820
822
820
818
819
819
819
818
819
822
824
829
830
827
823
819
823
822
825
825
824
827
831
833
834
834
832
830
828
830
830
829
830
832
834
837
843
843
842
837
837
832
836
838
839
840
838
846
848
848
845
842
841
836
837
840
843
840
838
839
841
840
840
837
834
827
831
836
836
838
836
839
839
840
839
836
833
831
835
834
833
831
829
829
833
835
835
827
823
820
822
821
824
822
819
819
820
820
819
815
812
809
813
817
817
816
815
816
819
820
820
818
815
812
815
817
823
824
822
825
827
827
826
824
820
817
818
822
831
832
830
834
838
842
844
841
841
841
846
853
860
864
868
868
869
877
878
874
871
867
866
866
866
862
861
860
862
865
864
859
851
846
843
840
839
835
833
833
829
832
829
824
822
819
817
818
822
826
826
823
823
826
826
823
816
809
799
793
790
787
787
794
807
835
869
906
945
978
1009
1041
1068
1105
1131
1147
1157
1159
1158
1146
1132
1117
1087
1045
989
935
888
854
836
836
846
852
858
854
844
834
825
823
821
817
811
811
810
809
811
809
808
807
804
814
815
820
819
817
813
809
808
813
812
810
809
812
816
820
817
818
814
812
811
816
818
816
815
818
815
822
826
827
823
819
817
817
818
821
822
821
822
829
829
833
830
828
827
828
832
831
833
828
831
835
838
840
836
833
833
834
836
838
839
839
840
845
847
842
842
840
834
839
838
842
838
835
838
842
844
843
837
837
833
829
833
833
832
831
831
836
841
839
836
832
829
828
832
833
830
829
828
832
835
834
834
828
826
824
822
821
821
819
818
819
821
821
822
816
812
812
813
817
813
813
812
815
819
819
817
813
813
815
815
815
817
816
823
824
824
825
820
822
824
827
827
826
825
824
830
836
839
835
835
836
837
845
850
851
855
858
866
870
874
874
870
868
867
868
867
864
861
859
861
864
866
862
859
848
846
845
842
834
831
829
831
831
833
831
827
823
822
820
821
820
821
818
822
825
826
826
821
814
805
799
792
782
782
794
815
851
891
931
968
1008
1044
1078
1106
1128
1144
1155
1163
1162
1152
1138
1115
1081
1032
975
918
870
839
831
833
846
855
855
852
836
829
821
815
804
803
803
807
813
811
810
805
806
808
809
808
806
804
808
813
812
813
809
807
807
809
811
808
806
805
809
812
817
818
815
815
815
817
818
820
810
814
817
821
822
820
818
821
820
824
825
823
818
820
823
832
830
833
830
828
827
827
830
831
825
826
829
834
835
836
834
833
831
834
835
836
837
831
831
836
841
842
840
831
832
830
833
835
832
831
827
829
834
838
836
833
831
830
833
835
832
830
828
829
834
836
833
828
826
825
824
826
825
821
820
823
825
826
819
817
821
818
815
813
809
807
808
812
816
816
812
813
809
812
812
813
811
808
812
815
823
824
819
820
818
816
816
818
815
817
821
826
829
829
828
825
824
824
828
828
827
826
832
835
839
846
847
848
855
858
863
861
862
863
866
871
873
874
871
864
861
858
856
855
850
850
854
855
854
849
841
836
833
831
828
826
821
821
821
822
823
821
817
815
814
815
817
815
811
809
811
812
808
801
790
778
776
780
792
817
843
881
923
961
997
1035
1062
1092
1119
1141
1152
1156
1147
1135
1124
1103
1067
1017
956
898
859
839
833
834
838
843
850
848
838
827
813
807
804
804
802
801
797
800
806
807
808
811
808
808
809
810
804
803
801
803
807
813
811
811
809
807
810
813
813
810
807
810
811
813
814
814
812
810
814
815
812
812
810
809
817
821
827
825
820
820
819
821
826
826
824
823
826
830
833
834
832
832
829
829
831
830
828
828
833
836
842
844
842
838
837
838
837
837
833
832
836
839
840
843
838
837
835
837
837
837
833
832
834
836
839
838
838
831
834
832
836
835
830
833
830
833
835
834
833
830
829
828
830
825
820
819
822
826
827
831
825
819
818
817
817
817
810
809
810
815
818
818
817
817
819
816
818
817
815
817
819
823
827
826
825
823
824
828
827
822
823
829
835
839
839
840
842
841
843
845
847
848
852
856
864
869
872
871
877
876
879
879
869
868
867
869
868
867
865
868
867
868
865
858
849
843
835
839
837
836
832
831
834
836
835
832
825
823
821
825
824
828
827
826
828
827
822
814
803
791
782
784
792
807
825
857
899
941
981
1015
1051
1086
1118
1145
1166
1175
1176
1171
1161
1139
1102
1047
983
925
881
852
841
846
857
869
869
867
856
838
827
818
816
815
814
814
813
816
819
819
817
816
818
817
819
822
818
820
819
818
824
824
823
820
813
816
818
823
823
824
820
824
827
831
826
821
820
822
825
828
828
826
825
826
831
835
835
832
827
829
829
835
833
835
835
839
840
844
842
837
836
833
838
841
843
843
839
842
845
851
853
848
844
840
839
845
847
851
850
849
852
850
853
850
847
846
842
843
845
846
846
845
847
847
850
849
846
840
841
845
845
848
848
846
848
848
844
842
837
834
835
836
836
837
836
833
832
831
835
836
831
823
822
824
825
825
829
825
822
820
821
822
817
819
819
819
823
826
828
827
827
827
827
830
830
828
823
824
825
832
832
836
835
831
833
834
834
835
835
834
834
842
848
845
846
846
848
852
857
862
864
863
865
871
875
881
883
882
877
877
875
874
873
870
866
868
868
867
867
866
864
856
854
849
845
844
838
837
834
837
838
836
834
829
827
829
827
826
824
825
823
829
830
829
823
819
811
803
801
795
787
782
790
809
834
866
906
944
976
1012
1049
1084
1117
1141
1158
1167
1170
1166
1152
1130
1110
1077
1033
978
926
881
853
841
844
853
860
863
855
844
834
827
827
823
817
814
817
819
820
818
813
810
811
813
817
821
821
821
816
819
818
821
821
815
815
814
815
817
820
819
819
825
823
822
818
816
813
814
820
823
823
820
823
822
826
826
827
825
821
824
826
828
831
827
828
828
836
837
831
831
829
832
836
838
843
841
841
835
838
840
843
840
840
839
840
844
847
850
849
842
840
843
846
845
842
839
838
842
844
847
845
841
838
839
839
838
834
835
834
839
840
838
840
839
838
837
832
830
826
827
830
833
834
833
830
823
827
827
829
824
819
817
819
820
819
817
817
817
815
817
817
813
810
809
813
813
818
818
818
813
817
817
816
816
813
811
813
819
826
823
824
822
821
822
819
821
820
818
820
825
832
836
837
833
830
831
836
838
843
844
847
857
862
868
868
868
868
870
869
869
864
861
861
865
867
863
862
855
854
857
852
845
839
834
830
835
832
828
829
823
826
823
821
820
816
816
819
822
825
821
823
820
819
818
813
805
788
779
778
781
795
816
844
882
922
959
995
1027
1059
1087
1119
1145
1159
1165
1162
1151
1139
1115
1075
1019
949
892
851
830
825
832
839
847
844
833
825
813
807
805
804
801
803
804
805
807
811
809
804
804
803
806
808
810
806
807
810
811
810
807
805
804
805
809
814
809
807
810
811
815
815
817
814
810
809
807
811
816
816
813
815
815
818
819
820
814
813
814
818
824
828
828
826
826
827
829
831
829
825
821
827
831
835
835
835
836
837
838
834
832
833
830
836
838
838
836
838
835
835
836
837
831
827
827
830
834
837
836
832
832
834
833
828
824
823
826
828
831
832
832
829
832
832
833
831
827
824
822
820
823
826
824
821
821
822
823
819
813
809
807
810
816
816
817
814
812
810
811
813
812
807
807
807
813
815
816
814
814
812
813
812
813
810
812
813
821
821
819
822
819
821
826
822
821
820
822
827
832
832
833
836
840
841
843
846
849
853
860
864
870
867
866
868
867
871
871
869
863
858
854
855
858
858
855
856
854
849
845
841
834
826
822
821
826
832
830
827
822
821
820
821
818
814
813
816
820
822
822
818
818
811
804
792
780
774
778
796
828
861
900
942
978
1015
1049
1079
1106
1126
1139
1153
1161
1161
1155
1138
1119
1090
1044
983
920
870
837
826
831
842
851
853
847
841
834
824
818
808
802
800
805
811
809
809
804
804
802
803
804
805
800
805
804
812
814
816
809
808
808
809
810
806
802
803
806
812
813
816
812
813
811
811
810
809
810
810
817
818
818
819
819
822
823
825
820
820
817
820
827
830
830
828
827
830
832
830
828
829
829
831
835
834
834
834
836
839
841
837
832
830
833
834
836
838
836
837
837
838
836
833
831
830
831
832
836
834
835
832
835
837
838
833
829
828
829
831
833
831
830
832
832
830
827
824
824
825
823
821
819
818
822
822
821
819
815
812
811
812
813
811
808
809
810
814
814
813
810
809
812
814
812
811
812
817
820
823
824
823
818
816
820
820
821
821
821
824
829
835
833
830
827
833
833
835
836
834
839
844
859
863
865
867
867
868
868
871
865
863
867
870
870
866
866
860
858
856
856
849
841
840
837
834
831
830
829
826
824
824
821
819
817
817
823
822
825
826
827
826
825
821
813
802
794
784
785
788
797
823
854
894
932
971
1008
1041
1075
1110
1136
1156
1164
1171
1168
1157
1141
1109
1068
1009
951
899
861
839
833
843
854
862
858
850
837
827
819
814
810
806
808
813
812
810
810
805
807
811
815
812
814
812
812
815
814
815
814
811
812
814
815
813
811
812
814
816
820
820
815
812
812
816
815
817
818
816
818
822
824
827
823
818
822
821
825
827
824
827
830
832
834
835
835
831
829
831
835
833
834
833
836
839
841
843
840
835
836
837
837
842
840
838
839
847
849
848
839
839
837
840
839
837
835
834
837
841
844
844
838
833
832
837
835
834
833
832
835
839
841
841
838
833
830
830
835
832
832
827
830
835
835
838
835
827
825
824
822
825
824
824
821
820
821
821
822
820
817
813
814
816
821
824
823
822
823
823
824
823
823
822
822
822
826
829
830
828
826
828
827
828
828
822
822
829
832
839
840
841
841
844
847
847
848
849
852
856
863
868
870
870
870
875
876
877
874
870
868
864
869
867
868
863
863
860
865
863
858
850
842
840
840
840
838
837
833
833
833
834
831
826
818
819
819
825
827
826
824
824
822
823
825
815
801
794
782
787
789
800
818
843
881
923
960
999
1034
1071
1106
1140
1159
1172
1175
1171
1159
1137
1112
1073
1015
956
906
870
852
846
845
852
860
864
862
849
830
821
816
816
820
818
817
813
811
815
815
813
809
808
808
812
820
822
819
815
813
811
813
814
815
812
811
816
820
824
826
823
816
813
818
820
822
818
818
820
822
829
828
824
823
823
823
825
826
823
821
822
831
835
836
834
835
837
835
833
832
829
830
835
842
846
843
842
839
842
842
846
843
841
843
843
850
854
853
847
841
842
844
844
841
841
844
846
849
851
849
845
842
841
842
841
838
835
833
839
842
846
845
842
839
835
838
835
836
832
832
833
839
840
839
836
834
835
834
830
823
823
823
824
827
827
823
820
824
818
819
814
813
815
819
821
821
819
822
823
826
825
827
823
822
820
826
826
829
828
830
828
827
831
830
827
827
828
835
842
844
838
841
843
846
852
853
852
856
859
868
875
879
880
881
874
877
876
873
869
871
872
872
873
872
869
867
867
864
865
858
848
845
842
841
838
835
835
837
835
836
832
829
828
826
830
832
832
829
830
831
832
830
822
809
794
783
785
797
814
839
867
905
943
989
1021
1056
1086
1111
1139
1157
1171
1179
1182
1175
1163
1145
1112
1061
1000
937
890
862
851
853
860
865
869
868
857
846
830
824
816
821
822
822
825
824
820
820
823
821
818
814
815
822
825
824
824
823
821
823
825
825
822
822
826
827
826
829
826
825
829
831
832
828
827
825
822
826
827
832
829
830
832
836
838
837
836
832
835
837
840
840
838
838
838
843
842
842
840
838
837
839
842
843
843
847
851
855
856
856
851
850
846
849
853
854
852
851
852
855
855
852
847
846
844
847
849
849
849
851
851
853
849
847
842
843
844
847
843
844
843
845
850
847
845
843
841
838
843
841
846
842
838
841
839
842
842
836
836
835
831
834
836
836
833
836
836
837
835
833
825
822
824
827
834
835
831
832
832
832
837
835
832
831
832
838
844
847
846
844
842
845
846
843
841
839
845
851
855
855
856
860
866
864
866
867
867
874
879
882
884
884
887
892
890
891
886
879
876
876
878
876
875
870
869
865
863
858
851
847
846
844
846
844
842
839
836
840
840
840
840
839
839
836
839
836
839
834
832
827
821
813
807
795
791
795
813
840
878
917
959
1001
1032
1064
1091
1117
1138
1154
1166
1175
1177
1168
1149
1116
1075
1009
943
887
854
841
844
857
865
872
866
863
853
842
831
824
825
827
830
830
827
823
823
825
832
833
831
829
827
831
832
832
831
827
830
829
832
831
828
825
823
829
833
830
834
833
835
836
841
840
836
832
834
832
833
830
832
835
839
845
848
845
842
838
838
838
846
850
849
848
849
851
850
848
847
844
842
847
849
850
851
851
853
856
860
861
856
851
851
851
853
854
851
850
850
854
856
855
854
852
846
845
847
850
850
852
853
851
856
856
855
853
847
845
843
850
848
850
847
847
846
845
846
845
845
845
845
851
849
848
847
847
846
850
851
844
839
842
838
842
845
847
843
842
842
845
843
843
841
843
841
847
846
845
845
845
847
852
851
847
848
848
851
855
863
862
862
864
868
874
876
876
877
879
883
887
889
888
891
892
894
897
896
888
880
877
877
878
879
880
881
878
879
873
865
860
857
856
850
851
850
848
843
845
848
848
847
845
841
842
844
847
846
846
841
839
831
823
810
803
805
818
842
875
915
956
999
1042
1077
1109
1132
1148
1157
1162
1165
1161
1150
1139
1121
1093
1048
990
929
879
851
844
851
863
874
880
876
871
861
854
845
835
828
824
824
830
835
835
835
831
833
833
835
834
834
833
829
832
832
834
831
833
836
837
839
838
830
826
826
830
837
838
839
837
838
841
843
843
837
837
836
839
840
839
839
841
840
841
844
843
839
836
841
847
848
850
844
844
845
850
852
853
849
847
847
847
855
853
853
853
858
859
859
858
854
848
847
849
855
859
862
857
857
852
853
854
853
848
848
849
855
857
856
856
852
856
855
853
853
849
845
845
846
854
852
856
851
850
847
846
847
846
846
840
843
846
847
846
843
838
841
839
839
838
831
832
835
837
841
840
839
835
836
835
837
839
834
835
834
835
840
843
842
839
838
838
839
840
837
834
833
834
837
846
849
841
840
838
835
839
841
838
838
837
842
851
857
853
853
849
848
850
856
860
862
865
865
869
880
883
885
880
879
875
876
881
878
879
877
877
877
874
872
866
861
863
861
858
850
844
845
842
845
845
849
841
838
833
833
831
832
831
834
834
834
837
836
835
830
826
825
825
822
815
807
798
791
792
804
824
844
874
907
945
988
1028
1062
1091
1118
1140
1157
1165
1166
1154
1143
1131
1127
1111
1083
1037
973
915
871
843
836
836
839
849
852
852
846
839
827
821
819
820
818
816
813
819
820
825
825
823
822
823
823
822
824
821
815
815
818
821
826
827
821
821
823
823
822
822
821
817
821
827
827
827
826
824
824
827
831
830
827
824
826
831
836
837
834
832
831
832
832
833
833
831
834
837
842
841
839
841
836
837
835
838
838
840
838
839
846
847
848
847
845
845
846
843
839
838
839
843
847
842
843
843
842
845
844
842
838
835
838
838
840
837
839
839
839
839
840
833
832
834
839
839
838
840
837
833
834
835
834
831
826
825
826
829
830
830
825
822
822
821
816
815
810
810
810
819
823
824
822
818
815
821
822
821
819
820
822
825
826
826
826
827
827
827
825
825
820
829
834
837
838
837
841
843
845
843
845
841
846
853
862
867
871
871
873
867
870
865
861
862
859
863
866
867
861
859
859
859
863
857
853
842
835
833
830
833
830
826
827
826
828
826
821
816
816
819
823
823
820
815
817
819
822
817
812
799
785
779
777
781
794
814
845
888
935
973
1012
1048
1083
1116
1141
1152
1158
1154
1149
1139
1118
1081
1029
965
906
862
835
824
823
836
847
853
846
835
825
818
812
808
803
802
802
806
810
814
813
809
806
804
808
807
809
810
809
816
820
819
816
809
806
805
809
809
810
807
807
811
815
817
817
811
809
810
812
813
814
815
818
820
822
821
819
817
815
816
821
819
817
817
817
823
826
825
822
819
823
824
828
829
827
824
827
828
834
830
831
829
828
832
832
836
834
833
832
833
837
836
837
834
828
824
827
829
832
829
827
829
834
837
836
834
828
829
830
830
829
831
831
832
834
838
836
832
829
826
823
826
827
829
826
825
826
828
827
822
818
818
817
818
819
817
817
818
824
823
822
818
815
816
818
814
815
817
816
821
825
832
829
826
824
824
827
832
830
831
831
835
840
843
847
851
850
856
862
865
868
867
866
865
868
869
868
864
862
862
860
860
859
855
856
859
864
860
850
844
837
833
834
834
833
829
826
829
830
828
826
825
823
823
824
823
822
823
826
827
824
815
802
790
777
777
785
798
823
856
896
938
977
1007
1034
1061
1091
1115
1135
1147
1154
1154
1153
1146
1135
1104
1057
996
929
877
845
832
830
837
847
859
861
855
846
831
821
812
813
810
810
812
810
812
817
820
816
811
810
810
814
814
816
817
818
816
824
825
824
822
818
816
820
819
818
817
816
818
824
824
823
822
816
816
818
819
819
818
819
824
828
831
828
822
821
823
826
825
825
820
824
827
831
837
836
835
833
828
829
830
832
831
832
834
840
843
844
840
837
832
835
839
838
838
840
841
845
843
842
838
835
832
838
841
844
842
842
840
839
837
835
831
830
830
833
835
838
838
838
836
844
846
844
842
833
829
827
826
828
831
830
834
838
836
839
835
829
821
826
827
829
830
827
826
834
833
833
828
827
822
824
828
832
831
828
832
834
835
835
831
834
835
836
838
842
841
842
844
850
852
854
854
859
865
873
873
875
874
872
875
879
882
882
878
878
873
874
872
868
866
868
870
874
872
864
856
849
849
850
847
843
841
842
843
846
842
833
829
823
825
831
830
829
824
828
830
838
832
829
816
807
796
787
789
792
804
819
843
885
926
963
998
1029
1060
1092
1118
1134
1142
1146
1145
1143
1134
1111
1077
1024
962
905
859
837
827
831
843
857
863
867
856
841
834
823
821
819
813
812
815
818
819
820
812
815
811
815
813
818
820
820
822
824
826
826
825
820
821
820
822
827
824
824
823
824
824
825
824
822
818
818
816
824
827
826
827
826
826
827
832
831
829
824
825
823
827
830
832
832
831
832
833
832
824
823
822
827
831
837
838
839
837
836
837
840
838
837
834
836
840
838
838
836
836
837
838
838
835
832
828
829
835
835
836
835
836
831
831
834
835
830
826
825
831
832
838
836
834
834
832
830
835
829
826
826
825
827
829
833
830
827
821
821
823
826
821
820
820
822
825
827
826
823
816
811
813
819
816
818
819
821
826
828
830
829
826
818
817
816
817
819
820
819
823
828
828
830
829
830
827
826
830
831
832
833
833
839
844
850
854
849
848
848
851
857
864
865
869
870
869
869
871
868
862
855
852
853
854
859
859
858
857
854
853
848
843
836
830
827
829
832
834
831
823
823
821
820
820
818
816
815
818
824
827
826
822
816
811
807
805
797
788
778
779
790
809
835
871
910
952
995
1032
1065
1094
1119
1135
1145
1149
1144
1135
1122
1104
1073
1034
978
914
865
832
818
821
834
848
854
854
851
844
834
822
813
804
805
813
814
817
812
809
808
811
813
814
816
819
820
823
824
825
816
813
810
809
812
811
813
810
811
814
818
819
817
812
809
811
815
816
819
816
812
816
815
816
816
819
816
819
820
822
823
820
822
826
831
835
831
830
828
830
832
833
835
834
834
835
839
843
844
840
834
833
835
839
842
838
840
840
844
845
848
843
837
834
835
834
837
836
834
833
834
838
836
834
829
826
828
830
833
834
831
832
829
828
832
830
828
823
823
826
827
833
831
831
830
831
834
833
827
826
824
825
822
820
817
820
823
823
822
822
816
817
820
820
819
819
821
823
827
830
829
827
822
824
823
822
822
821
823
830
833
832
834
836
839
838
841
838
836
836
841
849
853
858
858
859
858
865
868
863
861
861
864
867
873
872
867
860
861
859
855
856
856
854
852
854
852
849
841
833
828
824
822
819
819
818
821
824
822
823
820
819
819
817
818
817
812
806
805
798
789
779
774
782
796
828
862
902
942
981
1025
1064
1093
1120
1138
1145
1147
1140
1136
1121
1104
1081
1044
990
928
873
831
814
813
820
831
837
835
829
827
820
813
800
800
799
801
802
802
799
796
796
800
805
807
809
807
806
806
808
803
805
804
802
805
808
809
808
803
806
805
806
801
800
800
805
808
811
813
811
806
811
810
808
806
802
802
805
807
815
817
815
813
818
817
817
817
812
812
814
817
824
824
824
819
820
822
823
822
819
816
822
823
828
829
833
827
826
824
820
823
826
822
823
824
825
827
829
825
825
822
822
822
821
815
817
818
818
824
825
822
817
816
817
817
815
811
812
816
819
821
822
819
812
812
813
812
811
808
806
802
808
811
814
808
804
799
799
804
804
800
799
799
804
807
810
807
800
797
798
799
802
799
798
800
801
807
810
814
809
807
808
810
812
810
812
810
810
818
824
830
833
833
838
840
841
847
843
842
842
841
849
851
850
849
846
845
840
836
831
828
830
828
827
825
815
812
807
808
806
802
795
793
795
800
805
800
799
795
798
798
802
800
795
794
794
794
795
790
778
769
754
748
755
764
789
819
860
901
946
986
1022
1052
1079
1108
1128
1141
1145
1142
1134
1124
1111
1090
1054
1003
936
878
831
808
801
804
815
822
830
827
823
812
796
785
782
783
784
783
785
784
791
790
792
790
788
784
786
786
788
789
788
789
792
793
794
789
786
782
783
785
788
789
791
788
792
795
796
791
791
790
793
794
794
792
791
791
795
799
801
799
792
789
784
791
793
795
798
798
802
806
807
805
798
796
796
797
804
805
804
805
810
814
809
805
800
803
808
812
813
811
811
813
816
815
813
808
807
810
808
808
804
802
804
807
815
817
810
805
808
806
810
807
803
800
803
808
813
808
805
802
799
805
807
802
801
802
804
807
812
809
802
801
797
795
794
791
793
793
799
800
806
801
798
798
800
805
807
803
802
801
807
813
816
817
815
820
823
832
836
841
841
845
847
847
848
846
849
851
850
849
846
837
837
838
841
843
843
840
837
837
832
826
820
814
810
812
814
821
821
823
816
811
805
797
792
790
794
802
811
816
819
813
807
799
787
774
763
761
771
798
832
863
900
938
972
1014
1051
1084
1105
1115
1123
1120
1111
1091
1065
1021
967
902
846
809
795
801
818
835
843
839
833
822
810
801
791
788
796
800
808
807
804
804
810
814
818
817
810
811
806
805
805
803
804
806
812
817
821
816
816
811
813
815
814
809
810
811
817
823
824
820
814
814
814
820
821
824
822
824
825
830
832
829
825
822
822
827
827
829
832
832
833
841
841
834
829
824
824
825
827
825
828
833
839
843
845
842
835
829
827
826
833
833
839
835
833
835
833
830
830
827
822
821
817
821
823
827
828
829
832
833
833
827
820
820
821
826
831
832
832
830
831
830
822
821
816
817
824
829
834
830
826
823
824
824
824
824
821
817
820
821
828
829
827
825
822
825
821
821
816
813
818
824
830
834
834
832
831
831
831
832
830
831
834
838
845
846
851
848
848
852
855
858
858
861
863
866
870
871
871
867
864
868
865
868
865
857
853
849
849
852
855
860
855
849
848
845
841
835
828
822
826
830
832
832
827
820
817
821
821
820
822
823
825
823
828
827
822
809
797
788
784
783
791
809
836
869
917
959
992
1023
1052
1074
1098
1113
1120
1114
1108
1103
1099
1088
1064
1024
976
917
863
826
809
805
817
834
846
852
842
832
814
812
806
806
802
803
803
804
808
809
810
808
804
804
806
812
811
807
804
807
808
812
813
810
808
806
807
806
806
807
809
815
815
816
813
809
804
806
806
809
809
812
812
816
820
819
817
812
812
811
813
810
814
813
819
823
826
826
822
816
816
817
820
818
817
818
821
824
829
826
826
824
822
828
828
823
824
822
824
826
824
822
820
819
817
818
820
815
814
814
814
818
822
823
822
820
813
814
815
817
814
813
814
817
820
821
817
811
813
812
813
810
807
807
810
811
811
808
808
806
804
804
801
801
796
802
807
807
807
802
802
804
802
804
801
800
799
807
808
810
808
810
808
808
811
806
805
804
808
813
815
818
820
820
821
821
825
820
821
822
825
833
844
847
847
850
850
853
851
848
845
842
847
851
847
847
844
841
837
841
839
830
824
819
816
812
811
807
807
806
809
806
799
797
796
796
801
802
802
803
801
804
805
803
799
789
777
768
762
767
775
796
823
855
897
938
975
1008
1041
1069
1099
1115
1123
1124
1117
1114
1103
1089
1069
1030
976
915
858
818
799
793
798
815
825
828
820
809
799
794
792
792
794
792
791
793
791
795
791
789
786
789
793
796
796
796
796
801
799
799
796
793
794
793
794
795
797
798
798
802
801
803
800
796
796
798
800
805
805
802
802
809
809
806
804
802
804
804
810
813
809
809
809
811
814
818
816
813
811
807
811
816
815
813
813
817
819
822
821
819
815
815
818
817
819
816
816
819
818
822
818
811
808
807
808
810
811
810
813
814
817
818
812
810
809
809
811
813
813
812
814
814
815
815
810
805
805
807
809
809
808
803
802
804
805
805
802
802
800
803
801
800
797
793
792
792
794
801
796
797
796
795
795
802
806
808
808
811
813
814
811
810
808
813
816
820
821
825
825
822
829
835
842
841
842
844
849
855
858
857
853
850
852
854
852
842
838
837
840
847
844
841
837
836
832
826
829
823
818
816
813
817
819
816
814
814
810
810
813
812
809
808
807
808
811
807
807
799
793
787
779
774
772
777
790
818
856
898
937
979
1010
1045
1077
1105
1125
1138
1143
1142
1139
1132
1112
1085
1045
986
925
872
830
812
804
819
834
845
844
840
832
824
815
800
791
790
787
795
806
809
811
811
813
814
812
807
801
798
800
806
812
811
809
810
809
808
811
808
802
801
803
809
810
811
810
807
811
811
813
814
807
804
805
811
819
821
822
822
819
819
820
819
811
812
814
820
819
821
817
819
819
824
828
828
827
822
822
824
829
830
832
831
833
832
836
830
827
825
825
826
826
829
824
826
830
832
833
831
830
823
819
818
825
828
824
824
826
828
829
830
824
821
819
820
826
830
827
826
821
818
821
824
823
820
815
813
820
824
821
819
817
816
820
821
818
812
803
804
807
812
814
816
818
821
829
829
822
816
810
813
820
826
827
824
828
828
829
825
825
826
832
844
848
852
853
851
857
859
860
860
857
854
856
861
868
870
863
859
856
854
856
856
854
852
849
846
842
840
833
832
832
833
831
826
819
813
812
816
821
827
825
820
816
815
816
817
812
815
809
809
806
805
796
786
779
783
794
816
854
893
933
973
1013
1046
1074
1096
1114
1124
1126
1123
1113
1092
1070
1037
989
928
872
832
816
814
823
834
843
846
840
836
830
825
814
806
808
809
816
814
813
809
807
814
818
818
814
816
817
819
819
815
811
803
806
810
814
817
817
817
816
817
821
818
816
814
814
816
821
821
822
821
822
825
828
823
816
817
815
817
826
831
826
827
827
831
828
829
825
824
830
832
837
833
835
835
834
835
837
836
829
828
831
830
836
836
834
834
833
837
836
835
830
828
827
830
832
831
829
825
824
826
828
830
825
820
816
817
821
824
825
826
826
828
828
827
824
821
818
819
823
823
822
818
812
813
813
817
819
815
809
808
810
813
818
817
812
816
815
817
816
811
805
809
810
811
811
812
812
817
817
821
817
812
804
808
810
821
823
828
830
830
829
828
828
825
829
831
840
850
852
856
850
851
851
855
854
855
850
850
853
855
854
853
849
846
847
850
849
849
840
833
829
827
828
828
822
817
819
818
817
817
808
803
805
810
811
811
811
808
813
808
811
801
794
786
776
773
774
775
788
807
844
883
926
962
995
1023
1054
1082
1105
1122
1123
1115
1110
1104
1096
1078
1056
1017
960
901
852
816
798
793
807
820
830
836
831
818
807
802
800
802
801
796
793
789
791
792
791
791
786
791
800
805
803
803
801
798
797
796
797
797
793
795
793
799
801
802
800
792
795
796
798
798
798
801
801
803
809
804
801
799
799
802
802
799
798
800
800
806
811
805
803
803
803
805
803
805
804
808
811
816
816
810
810
811
807
806
810
808
805
807
811
815
818
812
810
807
803
806
807
803
803
801
801
809
812
808
802
797
797
797
799
801
796
795
799
804
804
803
798
796
793
791
794
792
791
793
795
795
797
790
787
786
786
785
783
780
779
782
784
787
784
778
777
777
777
775
777
778
777
783
787
788
787
784
781
783
784
782
776
776
777
783
786
788
787
785
786
789
791
791
787
791
791
798
800
800
802
804
808
813
818
822
819
821
825
829
832
834
830
829
825
824
826
824
822
816
816
818
819
817
814
807
802
798
793
787
781
780
780
785
784
785
782
780
781
780
783
775
773
774
779
779
780
775
770
762
753
743
748
754
766
799
841
886
931
967
1001
1028
1065
1093
1107
1110
1108
1100
1092
1079
1066
1041
994
935
870
818
783
768
768
782
795
806
806
804
793
782
779
771
765
763
762
766
767
770
772
770
772
777
777
775
774
773
774
775
776
777
773
781
779
781
782
778
774
776
775
778
776
776
776
781
785
785
786
782
781
779
783
786
789
790
790
792
793
795
798
795
792
790
791
794
796
797
799
798
801
806
805
799
799
798
800
801
802
803
805
805
806
807
809
804
804
802
802
804
801
799
802
800
805
806
804
799
792
795
795
791
791
790
795
798
800
800
801
799
794
795
798
799
797
796
794
794
793
796
797
792
785
786
788
789
789
785
784
783
785
787
786
783
778
783
779
783
782
781
779
782
783
788
785
786
779
783
782
786
791
789
787
788
793
795
798
798
793
793
796
798
800
802
803
807
813
821
824
827
825
828
827
834
833
833
832
833
833
834
834
830
826
822
819
818
820
823
819
815
812
810
805
798
794
787
784
786
788
788
787
783
783
785
788
787
784
783
779
780
782
785
786
783
778
773
766
758
752
746
752
770
803
841
882
919
952
984
1015
1044
1074
1094
1105
1109
1110
1105
1093
1077
1057
1022
966
900
839
790
770
770
784
802
811
812
805
794
789
780
772
766
767
771
772
775
774
772
773
773
778
777
773
772
774
776
776
779
780
777
778
777
780
780
779
775
777
779
782
783
782
781
780
786
787
787
784
782
780
781
785
790
791
790
790
797
799
799
797
794
794
797
798
801
797
797
800
800
805
799
797
793
796
800
803
804
808
806
806
805
805
802
798
799
797
800
799
800
796
796
797
797
799
796
792
787
787
788
792
796
796
796
797
798
799
801
797
791
785
788
790
792
792
787
788
788
791
793
790
787
783
784
785
786
786
784
785
782
785
785
778
776
773
769
772
771
770
769
772
773
776
778
776
774
775
779
781
780
776
776
783
783
786
784
782
784
787
790
792
793
792
793
798
805
808
805
807
811
818
822
825
826
828
828
832
832
831
828
825
823
826
826
822
821
819
820
818
811
803
798
791
790
787
787
788
784
783
785
787
790
787
785
782
786
785
786
786
784
783
780
783
779
769
752
742
740
748
765
795
828
875
919
963
1000
1035
1072
1096
1121
1136
1136
1132
1123
1112
1094
1071
1023
959
895
835
802
787
788
795
809
818
824
821
808
794
782
770
769
769
770
768
764
767
775
780
782
782
779
779
781
781
780
781
779
780
783
782
779
777
777
778
781
782
781
777
776
777
782
785
785
785
782
784
784
788
785
784
784
786
790
795
794
792
790
793
794
794
790
791
795
800
803
804
800
794
796
796
802
805
801
802
802
804
808
809
808
805
803
806
809
813
809
807
802
804
811
814
817
812
811
810
812
812
809
803
801
799
803
810
811
808
809
806
806
806
805
801
800
799
809
810
807
803
803
803
803
802
801
794
794
797
803
805
806
800
800
802
803
796
792
789
788
795
799
805
805
798
796
791
793
801
803
803
805
808
813
816
819
817
815
815
816
820
823
826
829
838
843
849
855
856
853
847
842
845
842
845
842
844
843
844
845
843
841
839
841
841
838
834
825
815
810
810
812
815
815
811
809
806
807
809
809
806
800
804
806
810
812
812
804
800
797
796
786
773
769
770
777
796
819
846
880
907
937
972
1008
1041
1068
1091
1107
1116
1122
1122
1120
1109
1094
1071
1038
992
929
873
830
804
800
814
825
837
840
838
832
831
824
819
807
801
799
800
802
801
799
799
802
802
809
815
814
810
806
808
806
808
804
801
804
809
812
822
817
813
810
811
813
816
813
812
810
815
819
820
822
819
817
816
820
823
824
823
820
821
825
831
832
828
824
821
822
822
826
827
825
830
832
838
836
838
834
828
826
829
833
834
834
833
833
839
840
840
837
833
832
831
836
835
832
832
833
836
836
839
834
831
827
825
827
831
827
829
828
830
834
836
833
827
824
826
828
827
828
827
828
830
829
830
825
824
824
826
826
826
827
823
824
826
828
829
826
819
819
819
822
820
818
819
822
828
831
830
826
820
825
826
828
828
828
828
827
834
836
841
835
832
830
831
833
833
833
832
837
841
844
844
845
843
840
842
845
847
847
848
858
867
873
876
875
878
877
877
881
880
878
878
882
885
877
873
867
868
870
871
872
867
861
856
850
847
850
843
843
833
835
838
835
834
829
829
831
836
835
836
835
830
832
832
829
822
817
808
803
801
805
809
824
849
882
921
966
1005
1042
1073
1100
1127
1147
1158
1153
1147
1134
1125
1118
1098
1068
1018
958
898
853
829
817
822
835
847
852
850
840
832
826
822
821
816
815
817
823
824
817
816
817
826
827
830
828
824
823
825
826
826
825
819
818
827
830
832
830
826
826
826
828
828
828
822
825
829
838
840
839
836
835
833
836
840
836
837
837
840
841
846
846
844
840
843
844
846
843
841
839
844
847
851
853
852
848
846
847
850
846
847
844
849
850
854
852
851
846
844
848
847
846
844
837
835
841
847
850
847
841
838
837
839
842
841
836
837
841
844
844
847
841
839
838
839
839
840
835
837
837
841
839
841
837
834
829
829
828
833
831
829
826
830
832
833
829
823
817
820
822
824
823
823
824
825
829
829
825
825
822
821
826
828
830
829
832
835
835
835
833
829
831
834
834
838
837
834
840
843
850
852
853
850
852
854
862
867
872
870
875
879
881
881
874
872
867
869
869
865
862
862
859
864
867
867
860
850
846
836
834
834
834
829
827
826
828
828
827
826
820
815
819
822
822
824
822
823
823
823
818
811
800
790
779
781
787
803
829
863
908
952
993
1031
1064
1093
1118
1140
1150
1149
1144
1138
1135
1127
1113
1087
1043
982
919
865
831
814
816
823
836
843
848
839
827
816
810
809
808
809
807
809
807
811
817
814
813
807
805
810
813
814
816
814
813
814
816
816
815
812
807
808
811
814
818
818
816
817
818
821
820
817
815
818
821
824
826
828
827
830
828
831
829
827
829
832
834
837
835
832
836
834
836
839
841
836
832
831
835
836
838
839
839
838
839
839
841
838
834
836
837
842
846
842
840
836
835
838
837
836
831
829
829
833
836
834
833
831
831
830
830
828
825
824
827
829
833
832
831
828
827
831
830
829
826
820
818
818
824
822
818
816
820
821
818
813
811
810
810
815
814
811
810
813
814
815
811
809
808
807
811
813
812
814
818
818
822
819
815
816
816
819
818
820
818
819
817
827
831
829
825
825
826
826
830
832
837
838
845
850
856
859
858
860
863
865
868
869
870
868
864
867
864
860
855
847
846
850
854
851
848
845
841
836
830
824
820
818
819
818
816
811
813
818
822
820
818
815
813
814
818
815
807
803
794
788
782
779
792
813
843
881
922
960
994
1030
1069
1105
1135
1149
1155
1148
1148
1136
1125
1104
1070
1017
950
889
842
813
806
816
829
837
836
830
818
809
808
806
806
803
799
801
804
806
802
799
802
802
806
812
809
807
809
811
809
805
803
804
807
810
816
814
813
813
814
817
815
815
808
809
809
815
819
820
820
819
820
823
825
820
819
820
823
827
827
824
825
829
830
832
834
828
827
829
831
837
836
834
837
839
839
839
838
835
833
834
836
838
838
836
837
838
841
838
830
831
832
830
833
833
832
830
834
833
830
829
825
824
827
828
829
828
824
826
829
834
827
826
823
820
822
822
823
823
822
821
825
826
824
817
812
810
811
811
815
813
810
808
810
814
816
817
811
805
806
807
811
814
814
813
812
819
818
817
816
814
813
815
818
820
820
820
821
821
822
825
825
822
823
825
828
832
835
835
835
837
842
844
846
846
847
850
856
865
870
872
868
867
865
867
867
860
858
856
854
858
857
854
853
850
849
848
848
839
831
823
822
824
827
828
828
824
822
821
822
821
821
815
812
812
814
821
823
819
816
816
811
802
792
778
771
772
790
812
838
867
898
932
965
1001
1034
1069
1098
1132
1151
1167
1170
1166
1157
1140
1118
1081
1024
954
895
848
827
824
835
842
850
844
848
843
838
825
817
808
809
812
815
813
810
809
804
806
808
808
809
811
812
815
819
816
815
813
808
810
815
819
819
818
815
817
820
821
821
820
815
814
818
818
819
817
818
818
822
827
827
828
824
819
824
825
829
827
833
834
832
836
840
835
831
829
828
833
834
836
838
831
835
837
838
842
839
834
834
839
844
847
847
845
844
844
845
846
848
841
837
837
841
844
844
843
843
841
840
840
838
835
833
832
833
841
844
842
842
839
842
840
837
834
831
831
832
835
834
831
832
834
839
840
839
833
829
830
826
827
825
824
822
824
823
822
820
819
818
821
821
820
818
817
819
824
825
824
822
819
820
822
822
827
825
829
832
837
837
837
832
829
830
832
836
839
837
839
840
841
848
848
851
847
853
858
862
866
870
873
877
879
880
879
877
872
871
871
873
874
871
870
872
873
874
871
862
855
849
844
844
843
841
840
842
844
840
836
829
825
830
831
834
836
833
831
833
834
829
821
811
799
793
788
792
804
832
862
903
946
983
1014
1044
1075
1109
1138
1157
1167
1170
1172
1169
1160
1140
1111
1062
1005
945
896
863
844
842
848
858
869
873
862
851
838
829
824
824
820
822
824
828
833
833
830
825
820
818
819
823
826
830
829
835
837
839
833
828
829
827
827
831
827
826
828
833
834
836
835
829
827
829
832
834
837
836
836
840
841
844
839
834
832
834
838
839
846
845
843
844
851
852
852
848
846
843
846
850
851
851
851
855
856
858
860
853
852
850
853
854
854
854
856
858
863
864
861
856
850
849
852
857
857
859
853
850
855
854
855
852
851
850
852
857
857
854
857
855
856
857
854
854
851
845
847
852
854
851
848
852
852
852
853
853
845
839
844
845
846
846
843
840
839
843
842
838
834
833
837
842
841
845
842
843
845
847
848
844
840
841
842
843
845
849
848
851
850
854
858
857
857
855
857
861
862
866
865
865
866
870
874
876
875
876
884
891
895
896
895
894
896
896
899
895
889
886
882
884
888
887
885
885
884
885
882
874
870
863
859
860
862
863
858
854
857
855
857
854
851
847
844
845
848
851
853
849
849
846
848
844
833
821
810
812
819
837
862
896
935
976
1021
1057
1087
1113
1133
1155
1170
1179
1174
1170
1159
1147
1134
1101
1055
989
928
880
856
850
854
867
880
884
883
874
861
847
842
836
840
839
842
842
843
844
846
845
845
841
842
844
846
850
850
850
849
848
850
850
844
841
842
842
847
849
852
852
850
851
850
851
851
849
848
845
851
854
856
856
858
857
858
859
859
858
854
857
862
866
868
867
866
863
866
867
867
865
860
864
868
874
871
872
870
873
875
872
872
868
869
871
872
871
871
868
871
872
871
865
863
861
864
864
866
865
864
866
870
871
869
864
856
859
862
861
860
857
860
864
865
865
864
860
856
855
858
857
856
854
852
851
853
856
853
847
842
840
843
844
845
844
842
843
844
845
849
845
841
840
838
839
841
847
844
845
851
850
853
848
845
840
842
845
848
851
847
852
852
852
856
852
850
852
855
857
860
863
862
863
867
870
877
878
879
877
881
887
893
893
891
891
893
895
896
892
885
887
880
881
878
878
879
878
881
877
869
863
853
849
850
850
849
850
847
849
849
851
850
843
840
840
845
845
845
843
842
841
844
840
830
819
805
806
815
832
860
891
930
973
1015
1052
1083
1112
1136
1153
1162
1166
1164
1159
1150
1140
1128
1101
1049
983
919
870
847
839
844
855
865
871
873
865
856
839
836
825
826
829
829
829
828
829
831
837
837
833
829
830
833
834
834
838
834
835
838
840
839
834
832
831
833
836
838
838
841
842
841
843
846
843
838
834
837
842
844
847
846
847
850
854
853
852
846
846
847
852
853
856
852
852
854
859
863
862
857
855
853
852
854
859
859
860
864
864
861
861
861
857
856
859
863
866
864
860
862
864
862
863
858
853
854
851
855
859
858
858
856
853
852
854
853
851
850
849
851
854
856
851
850
853
855
855
853
847
845
846
849
851
848
844
848
849
847
846
841
834
833
830
830
837
838
835
835
833
838
836
837
835
833
831
833
834
838
837
836
836
839
842
838
836
834
832
833
840
843
843
842
838
840
845
845
843
842
839
841
847
856
855
858
854
857
860
864
867
868
868
869
873
882
889
891
891
888
890
889
893
889
886
878
882
881
878
875
876
876
875
867
863
858
848
850
849
853
852
849
843
839
836
840
840
839
833
834
837
840
845
848
842
840
837
833
832
828
816
807
801
798
806
822
841
868
899
942
982
1020
1053
1084
1114
1143
1164
1174
1176
1169
1158
1146
1137
1121
1089
1043
980
921
877
857
847
851
849
860
866
867
861
852
841
829
825
825
828
828
825
819
820
825
827
827
827
825
824
827
834
837
831
826
823
822
824
828
832
832
829
831
835
836
837
832
831
826
832
834
838
837
838
840
841
846
845
842
838
838
835
840
844
846
841
843
842
846
846
847
844
843
841
845
850
855
852
857
850
853
856
855
854
851
849
852
859
859
858
857
860
859
861
856
855
853
853
855
853
852
853
853
852
857
857
853
848
845
841
844
849
854
852
852
850
851
851
852
847
846
845
843
850
854
850
849
845
848
851
849
844
841
837
839
842
844
844
839
837
835
833
832
830
826
825
830
830
836
835
833
831
833
831
831
829
830
828
832
832
841
839
839
836
839
836
835
835
833
837
839
839
839
840
845
847
852
854
851
849
847
850
857
861
864
865
871
875
879
881
883
883
881
884
883
882
879
875
878
880
880
878
874
867
866
866
867
867
862
857
852
846
847
846
844
840
833
831
832
837
841
836
835
832
833
832
835
831
829
827
830
827
823
815
803
797
794
805
822
850
888
931
979
1019
1055
1091
1122
1147
1161
1167
1164
1156
1146
1134
1122
1099
1054
992
931
881
849
835
835
842
850
860
858
852
845
835
825
823
823
823
820
815
815
818
821
822
823
823
822
827
829
828
823
821
818
820
822
822
827
828
827
832
832
831
826
821
820
827
830
832
831
832
832
835
836
832
830
832
832
833
835
833
831
839
841
847
844
840
838
839
839
843
843
842
840
843
847
852
847
849
845
846
845
845
847
847
847
848
849
853
855
852
847
843
841
845
847
848
845
846
844
848
847
847
843
837
838
839
842
842
843
840
841
840
844
844
840
835
833
834
838
840
840
839
837
839
838
837
839
832
827
825
827
825
822
826
826
830
830
828
822
818
816
818
819
826
825
821
821
820
823
824
824
824
821
821
822
827
827
825
826
826
830
831
834
829
824
824
826
829
831
830
831
834
836
840
839
838
835
839
838
842
849
852
857
864
871
874
873
871
869
871
873
873
873
872
872
872
870
868
863
862
857
857
856
849
845
844
841
840
838
835
828
824
826
825
824
826
821
822
824
827
829
826
823
822
823
823
821
814
806
798
792
786
791
798
811
829
863
902
943
984
1018
1049
1083
1116
1140
1159
1164
1162
1151
1141
1130
1110
1070
1019
958
900
864
839
830
830
837
849
856
850
842
831
820
816
816
815
811
807
809
814
810
813
811
817
819
823
821
820
815
816
815
817
821
818
816
820
822
826
826
822
818
815
815
817
820
817
819
819
822
831
831
828
825
823
824
827
828
827
825
825
831
834
833
836
832
833
832
837
837
837
836
836
841
844
838
838
832
833
833
834
837
842
841
841
843
852
849
845
839
838
841
844
843
841
835
838
845
850
845
842
834
834
837
834
838
838
839
838
844
844
845
837
836
838
835
835
838
835
837
836
841
842
838
837
832
832
832
835
833
830
827
825
827
830
829
826
824
823
823
817
821
818
817
821
826
828
828
825
823
822
825
825
823
824
823
830
833
834
833
827
826
827
827
825
823
825
834
840
842
846
842
842
843
843
842
845
850
854
862
870
873
877
877
876
874
878
876
876
876
875
877
879
874
873
870
867
869
870
866
862
853
847
843
843
845
846
840
838
837
834
835
831
829
827
831
836
835
836
831
830
829
826
826
821
813
803
794
792
794
803
819
845
882
925
968
1010
1047
1086
1125
1155
1174
1184
1187
1180
1173
1158
1133
1094
1040
978
921
883
856
847
846
858
867
876
871
863
851
833
829
828
829
829
828
822
820
825
826
825
825
824
822
827
832
834
835
829
827
823
826
829
827
828
828
832
837
837
833
831
826
828
828
830
832
831
828
834
835
840
838
837
834
835
834
837
836
833
836
841
845
847
848
843
840
842
845
843
844
841
848
848
853
857
856
848
847
848
850
853
852
850
850
853
858
863
860
858
854
853
854
855
855
853
854
853
859
861
862
857
853
852
850
854
852
851
849
851
854
857
855
853
849
849
847
850
851
851
851
849
848
854
856
852
844
840
840
844
843
844
841
839
843
844
845
840
842
834
833
838
838
836
834
834
835
842
842
843
841
838
833
836
837
844
843
840
842
845
846
848
849
841
838
837
840
846
850
851
848
850
851
850
855
857
854
852
852
855
865
872
877
880
883
886
889
892
892
888
884
885
890
894
895
893
885
882
882
880
882
878
874
871
874
871
869
864
856
849
846
847
848
845
841
838
842
842
844
848
845
839
834
832
837
842
840
836
833
832
828
827
820
807
795
793
805
827
853
889
928
971
1013
1049
1083
1111
1137
1158
1173
1179
1183
1180
1172
1158
1144
1117
1074
1011
944
890
861
847
848
857
868
876
875
871
862
852
841
830
826
823
826
826
824
827
828
831
832
832
830
825
827
829
831
827
827
827
830
836
836
831
828
825
830
829
834
836
834
836
838
837
843
839
837
833
833
834
840
839
838
839
840
843
850
851
848
840
842
841
842
847
850
851
848
851
851
854
853
850
844
840
842
851
852
855
853
853
851
855
859
857
854
849
849
852
857
857
861
856
857
859
857
853
850
852
852
853
856
857
855
853
854
857
856
853
849
844
845
849
854
852
854
853
852
852
854
850
844
843
842
842
843
841
843
842
846
846
843
838
834
833
833
835
834
833
832
831
833
835
835
831
828
825
829
831
835
835
833
834
835
838
837
835
833
830
832
834
841
839
840
838
841
843
844
841
842
848
849
853
851
854
859
865
871
875
877
876
878
880
883
883
884
881
886
886
890
890
885
878
874
874
875
872
873
873
868
869
868
861
857
850
844
841
839
841
840
839
833
837
843
839
838
831
830
831
835
836
836
834
829
828
825
818
810
797
788
794
810
836
871
909
950
992
1030
1071
1112
1141
1163
1178
1184
1181
1170
1151
1127
1085
1025
956
897
855
840
838
849
861
868
864
859
852
843
831
828
822
821
825
823
824
823
822
826
831
832
832
828
826
825
827
825
826
824
823
825
830
833
830
828
822
822
823
828
831
830
832
831
836
838
839
836
832
827
825
829
833
835
835
834
836
840
841
839
833
832
838
837
841
840
837
843
846
848
847
845
845
843
844
844
844
845
848
852
855
859
857
853
848
849
851
848
851
851
850
848
851
855
856
848
846
844
844
847
845
843
846
846
849
850
847
843
838
838
838
839
843
843
843
842
844
847
845
845
841
837
835
836
835
838
836
834
836
837
835
832
826
824
825
826
827
824
826
826
827
831
827
823
823
825
825
825
825
825
828
830
830
833
828
829
829
827
830
832
832
830
834
837
844
847
846
844
842
841
846
847
847
847
851
856
864
871
872
871
874
879
882
883
878
876
876
879
884
883
883
875
872
865
869
871
871
865
862
860
857
852
847
843
832
833
832
833
831
830
830
829
833
835
834
828
829
829
830
830
829
822
820
813
807
803
796
795
802
826
855
892
932
969
1009
1047
1086
1120
1147
1165
1174
1176
1175
1167
1156
1137
1113
1077
1028
970
916
874
847
841
845
858
865
864
859
851
845
836
831
826
817
814
813
814
819
820
821
820
821
825
828
827
823
820
819
820
820
825
823
826
828
833
830
829
826
824
824
828
830
829
828
826
828
833
834
831
830
828
828
833
833
833
834
833
838
843
841
842
843
842
844
840
844
843
843
844
847
852
854
852
849
849
849
851
849
850
851
853
853
860
858
850
851
845
847
852
851
853
851
849
853
854
853
848
849
850
846
851
846
843
845
846
850
849
847
845
845
845
845
843
838
838
842
847
848
846
841
837
840
840
837
832
829
831
834
836
838
835
833
830
829
831
827
824
822
822
828
832
831
830
829
828
828
828
830
830
827
828
829
837
839
840
835
832
830
833
835
835
833
834
840
845
848
848
848
845
847
850
853
854
853
861
865
876
879
882
883
887
888
885
882
879
878
877
881
879
878
873
875
875
873
867
860
853
846
845
847
845
843
840
840
841
839
835
833
831
831
833
838
840
835
834
837
838
834
826
816
807
793
797
803
815
836
866
909
950
991
1029
1059
1093
1127
1155
1172
1181
1180
1179
1169
1152
1127
1085
1029
965
908
871
846
840
849
861
865
864
854
841
833
824
821
817
819
815
818
821
826
825
822
820
820
823
825
827
827
828
826
830
832
832
829
827
827
829
828
830
831
830
832
834
836
838
833
831
827
832
834
836
838
836
836
841
842
842
839
838
836
837
843
844
843
845
843
846
853
853
850
848
843
844
846
852
850
850
851
855
857
855
858
852
852
852
854
855
854
853
856
859
860
859
856
850
851
853
853
856
854
854
852
855
859
857
856
853
850
852
850
852
855
849
850
856
855
857
855
847
845
846
847
849
849
845
848
847
847
847
845
842
839
837
838
837
841
839
836
833
832
839
837
835
831
828
829
831
835
835
836
834
835
837
837
838
837
837
834
836
842
843
842
841
844
848
847
848
845
844
845
848
854
858
857
856
857
854
860
863
864
869
869
876
882
885
884
888
886
887
890
889
888
886
881
881
880
883
883
879
877
873
873
867
863
857
850
848
849
851
850
846
843
843
843
841
839
836
830
834
839
841
842
844
840
836
838
832
825
813
805
797
806
818
836
867
898
939
979
1015
1046
1073
1100
1127
1152
1175
1182
1186
1177
1169
1155
1135
1105
1058
994
935
888
863
858
859
863
868
874
876
870
859
846
832
829
832
831
837
832
827
827
829
830
832
832
830
828
836
837
839
838
836
834
831
830
832
834
833
831
835
836
838
839
837
835
833
833
835
837
834
837
840
843
848
847
843
842
840
841
844
842
840
841
844
847
850
852
855
848
849
849
851
855
856
856
855
861
860
862
856
854
856
856
861
861
862
861
861
864
869
870
868
864
859
861
861
860
860
860
863
865
866
865
857
858
858
858
859
861
857
855
857
858
858
856
852
852
852
853
856
852
851
853
853
858
857
856
855
853
850
850
846
841
840
842
848
851
848
843
838
838
833
839
836
835
838
845
845
847
847
845
847
848
849
848
845
841
845
851
853
853
856
850
852
853
853
857
860
857
855
861
865
868
869
869
872
874
879
883
886
887
891
897
901
905
902
903
902
902
902
896
898
895
891
894
896
893
891
890
887
883
875
868
861
861
861
862
859
862
854
851
852
854
854
850
851
851
851
854
858
859
856
853
848
843
836
827
815
814
825
844
875
913
951
993
1032
1069
1102
1137
1163
1186
1201
1211
1216
1211
1196
1176
1151
1110
1054
991
936
901
882
881
886
896
898
896
888
878
865
854
846
840
842
847
849
848
847
851
850
853
845
846
842
844
850
854
858
855
854
849
851
854
851
853
847
844
847
849
856
853
853
852
853
857
857
857
853
853
857
860
860
863
861
860
861
866
865
865
861
862
864
870
868
870
871
872
874
877
874
874
867
869
875
880
883
882
879
880
883
882
882
883
880
881
881
884
887
887
887
885
886
885
882
880
880
880
883
886
885
888
884
882
884
884
887
882
878
876
877
883
885
883
885
884
883
884
881
881
874
872
873
880
879
883
877
878
874
876
875
874
867
864
862
869
870
871
869
868
869
872
867
864
862
862
865
869
873
874
873
872
872
874
873
871
864
866
869
875
875
878
878
880
884
887
887
885
883
882
887
892
895
900
906
909
915
918
924
923
918
918
924
925
926
930
929
927
928
924
919
913
910
907
909
913
912
908
902
894
893
892
888
888
882
879
876
878
876
875
877
873
877
881
876
874
870
869
871
875
869
864
856
845
835
836
839
851
874
909
953
997
1044
1083
1118
1152
1184
1207
1218
1221
1219
1215
1202
1187
1160
1108
1049
989
940
908
890
886
889
901
909
909
904
894
883
872
869
863
863
860
856
858
859
862
863
862
864
863
866
869
866
865
862
858
860
863
866
863
867
863
865
871
866
867
864
863
865
874
873
874
874
873
872
872
872
872
868
871
874
879
880
877
877
880
883
883
880
879
877
880
881
883
887
881
885
888
892
893
889
885
883
885
889
890
892
888
888
892
893
895
889
888
886
890
891
893
893
891
888
888
891
890
889
884
883
885
887
887
886
889
885
886
889
889
890
883
879
877
883
889
888
887
889
887
885
885
883
881
877
873
875
876
878
874
875
874
872
876
876
872
865
862
865
867
869
870
867
863
865
872
877
874
869
868
868
874
874
877
876
876
878
881
882
878
877
873
875
881
885
886
885
881
882
885
888
890
890
885
887
889
894
901
906
910
915
918
923
925
923
921
920
929
932
933
930
927
925
920
922
919
914
906
906
907
907
899
897
892
890
891
884
880
873
874
874
874
877
877
875
874
874
877
877
875
872
867
868
867
869
863
853
841
833
833
842
858
880
913
950
993
1037
1072
1105
1133
1162
1188
1205
1216
1221
1213
1203
1195
1183
1157
1119
1061
995
940
903
885
881
886
892
900
905
901
895
884
873
861
860
859
860
860
858
858
858
862
862
861
862
862
859
862
862
860
859
857
859
863
864
869
865
861
861
864
863
864
857
856
857
861
866
868
865
862
867
866
864
866
862
866
864
866
872
877
875
874
870
871
876
876
875
873
878
876
880
883
883
882
880
878
880
880
881
875
879
883
887
891
889
883
879
881
883
883
886
886
883
884
891
892
889
888
883
885
883
882
880
879
879
884
886
886
885
881
880
879
880
877
878
872
874
877
880
882
879
873
870
872
870
871
868
864
863
867
870
872
870
864
858
857
858
857
857
856
855
854
857
860
857
852
854
854
855
852
856
856
855
857
861
868
866
865
861
858
857
860
860
864
863
866
867
871
872
871
867
866
867
872
875
874
878
878
885
893
898
899
899
901
904
911
913
909
908
909
907
911
911
911
906
901
896
896
896
892
893
890
887
885
881
875
871
864
857
858
859
859
861
858
857
858
858
857
859
855
851
853
855
856
857
853
849
846
842
838
828
816
812
814
825
850
883
921
955
997
1035
1067
1102
1136
1162
1180
1193
1201
1200
1193
1177
1157
1122
1066
1001
938
888
864
856
864
883
888
891
885
877
870
862
851
843
840
838
841
844
844
842
843
843
847
849
844
841
836
836
840
842
848
846
846
845
842
846
841
842
840
840
844
852
852
850
850
848
850
853
855
847
846
849
849
853
858
859
858
855
855
855
858
854
853
855
857
859
861
863
864
864
864
864
862
857
857
859
861
866
869
867
866
868
868
875
871
865
866
865
867
869
871
870
870
867
869
870
866
861
857
853
856
862
863
863
860
859
861
861
858
858
857
855
858
860
862
860
858
857
858
855
855
854
848
845
845
850
854
857
855
851
850
848
846
845
843
841
840
843
845
843
839
839
841
838
837
837
837
836
841
846
846
845
845
846
849
849
845
842
842
839
844
849
853
850
849
850
855
853
856
856
852
852
854
860
865
863
867
870
879
883
887
888
889
888
892
896
897
894
894
895
896
898
894
890
883
873
876
881
883
880
874
870
866
865
857
852
848
844
845
849
850
847
844
843
843
845
842
838
838
838
837
836
836
830
822
815
807
801
800
808
825
854
898
942
983
1018
1057
1089
1124
1155
1177
1187
1196
1193
1190
1180
1163
1136
1095
1044
983
929
886
861
855
859
872
881
880
874
865
852
847
839
833
828
824
822
826
831
832
832
830
830
829
832
830
830
826
825
828
832
833
833
837
837
839
838
835
833
830
833
839
841
837
840
839
839
843
841
839
834
835
837
841
842
845
840
845
844
848
848
845
843
839
841
845
848
851
851
852
852
854
854
853
850
847
848
851
853
857
855
856
856
860
864
861
858
854
852
856
858
864
864
860
855
855
853
855
859
855
848
851
852
856
857
855
855
856
857
857
858
854
848
849
851
855
854
853
853
857
855
853
850
848
843
844
848
848
847
846
842
842
844
843
842
836
834
834
837
839
840
841
837
838
840
838
841
837
835
837
839
842
841
845
843
845
846
847
842
837
835
839
845
849
849
852
855
856
858
857
856
854
852
859
870
874
875
879
883
892
896
893
891
887
886
890
891
890
888
885
886
887
884
880
875
872
870
867
865
861
855
855
854
852
850
843
840
835
835
837
840
842
840
840
836
839
841
840
840
835
830
831
828
823
814
801
794
801
816
839
871
905
941
984
1021
1062
1095
1123
1149
1170
1181
1190
1187
1176
1167
1147
1122
1080
1025
963
909
872
853
850
858
864
867
866
861
850
842
832
828
822
826
824
822
817
816
816
819
824
823
824
825
825
826
829
826
820
819
817
817
825
827
827
824
825
824
824
826
825
823
823
825
831
833
830
828
828
832
831
833
829
827
829
831
835
835
838
838
835
836
835
839
834
834
834
837
843
846
844
842
843
842
843
844
839
840
838
844
847
848
844
845
844
846
845
845
841
840
841
845
849
844
843
843
843
846
841
842
837
835
837
840
840
843
841
838
840
842
841
839
834
835
836
838
841
841
838
836
834
836
838
834
830
826
827
831
832
830
833
826
826
828
827
826
824
821
821
823
828
827
826
825
824
826
825
824
823
823
821
829
830
829
832
831
832
833
831
828
828
826
830
833
839
843
842
842
840
841
841
842
840
842
844
854
860
866
869
872
874
875
881
878
876
871
869
874
876
880
876
872
866
867
866
865
861
855
846
843
843
842
841
836
836
833
832
833
829
826
824
824
828
826
828
830
828
827
824
825
823
816
811
799
795
788
788
791
804
829
864
908
950
988
1025
1064
1102
1134
1154
1167
1172
1178
1175
1167
1150
1126
1095
1047
987
929
882
848
836
834
845
855
858
857
843
832
826
821
819
816
811
807
810
810
808
809
806
805
811
815
820
819
816
815
814
815
813
810
811
812
814
818
818
821
819
820
818
819
818
817
814
818
820
823
825
824
821
819
823
825
825
821
822
824
828
832
832
830
828
829
830
828
830
826
826
825
832
836
834
837
834
833
833
834
834
833
831
828
832
838
844
842
838
838
833
836
837
838
837
834
833
836
839
837
835
834
831
831
835
831
832
826
826
827
833
832
835
832
825
825
830
830
829
826
827
829
831
832
828
825
821
819
817
817
820
817
818
820
823
824
822
815
810
810
810
810
811
807
812
814
818
820
820
817
815
811
818
818
819
817
817
818
825
826
824
824
821
819
819
825
823
823
824
827
830
837
834
834
832
828
831
832
840
843
847
849
855
859
866
869
869
865
864
866
867
871
872
868
868
865
863
863
856
855
850
851
851
847
840
834
830
829
832
832
829
822
818
816
814
818
820
819
819
816
817
819
819
816
812
811
810
805
799
789
780
776
782
792
809
833
864
904
944
984
1021
1056
1092
1125
1146
1164
1170
1168
1158
1144
1131
1113
1085
1036
975
917
873
846
835
835
839
844
847
847
844
831
821
812
808
803
804
805
801
797
798
806
807
808
809
813
812
815
815
812
807
805
805
805
812
812
813
811
808
810
811
813
809
805
802
806
809
818
818
819
815
814
816
815
817
818
811
811
811
822
823
826
823
819
819
821
822
823
821
819
820
827
828
831
829
825
823
823
826
827
830
820
823
822
831
835
836
833
834
829
833
830
832
829
830
831
831
833
831
829
832
832
828
827
821
820
823
828
832
833
830
826
824
824
825
828
821
818
823
827
830
829
824
821
821
820
821
818
815
810
810
816
821
820
818
814
810
810
813
811
807
803
807
810
814
814
811
808
807
810
808
813
808
806
807
813
814
814
817
814
814
818
815
814
812
812
817
821
818
820
823
827
829
827
828
823
821
825
827
839
842
841
845
848
851
856
859
860
859
861
865
866
864
862
857
858
857
858
856
847
846
846
849
852
850
847
835
829
821
821
820
819
815
812
812
816
817
817
816
810
808
806
807
814
809
808
808
807
810
810
803
791
777
767
770
780
800
833
876
925
970
1015
1049
1077
1108
1133
1151
1159
1156
1151
1143
1132
1115
1084
1030
966
899
856
829
820
814
826
835
842
844
833
818
808
799
799
799
797
794
788
789
795
798
803
799
798
797
797
801
802
799
794
796
800
802
806
804
802
799
798
799
801
798
797
798
797
803
807
808
805
802
799
800
801
798
795
796
801
801
801
802
798
799
800
803
802
802
801
800
807
812
816
815
813
810
809
813
809
808
808
809
809
813
817
815
816
814
812
815
817
816
814
812
816
819
822
821
820
816
813
816
818
812
814
815
817
819
823
817
814
812
811
810
815
810
811
810
811
815
820
822
817
814
810
812
806
806
802
805
807
808
807
804
803
801
803
803
799
797
793
794
799
803
805
803
800
795
793
797
798
801
798
799
801
806
807
806
805
804
802
806
809
810
807
805
805
809
812
819
818
811
811
812
814
818
820
816
815
821
826
836
841
842
842
845
850
854
859
858
860
859
860
866
865
862
856
853
851
851
849
848
849
848
849
841
830
827
821
820
817
815
817
809
812
814
819
820
817
815
810
812
813
812
811
810
809
810
811
806
792
777
770
771
784
801
824
860
894
936
975
1007
1038
1067
1094
1119
1141
1157
1165
1167
1161
1153
1142
1123
1084
1030
966
907
863
839
835
838
846
853
855
853
847
838
823
811
802
799
800
799
803
803
804
808
808
808
805
801
804
806
807
806
807
806
808
812
811
810
805
808
806
809
809
807
807
807
811
812
815
814
812
809
810
810
813
813
810
808
814
818
820
818
817
813
813
816
819
819
817
817
820
824
825
825
824
819
817
820
824
823
823
827
823
825
829
832
831
829
828
831
835
836
835
833
831
832
833
831
830
828
827
830
830
828
829
828
829
833
833
829
825
821
824
828
828
826
825
824
825
828
826
823
823
824
827
828
827
825
821
823
825
825
826
818
817
816
817
819
820
819
816
816
819
819
817
812
809
811
816
818
819
816
816
817
819
819
825
821
820
820
823
824
824
823
827
829
833
834
836
833
832
834
832
828
835
837
846
854
859
862
862
861
867
872
876
870
872
870
875
877
876
876
867
861
860
862
860
857
851
849
848
847
844
839
835
832
831
832
830
826
823
822
824
828
825
822
821
824
825
826
821
813
813
808
799
795
786
785
790
812
843
884
925
970
1012
1061
1100
1133
1160
1173
1184
1182
1168
1147
1119
1075
1015
950
891
853
837
837
849
860
864
863
856
846
838
828
822
816
814
815
817
819
813
807
807
809
811
816
816
815
815
812
816
816
819
813
813
812
813
815
818
818
819
819
820
823
823
818
817
814
814
816
820
821
819
818
819
822
823
822
820
816
820
824
826
825
826
826
827
830
828
824
821
822
826
830
832
832
832
837
839
840
839
834
832
833
836
837
839
839
835
838
841
844
842
838
837
839
837
839
841
835
833
837
838
839
834
833
832
835
836
838
840
839
836
840
842
840
837
831
827
829
827
830
828
833
832
833
836
837
833
826
826
825
824
824
826
826
828
827
828
829
821
821
820
822
824
824
824
825
825
828
832
834
832
826
823
823
828
831
835
837
836
833
835
837
835
833
831
830
833
839
842
846
843
846
843
847
847
851
850
849
853
860
870
875
877
880
883
883
880
880
872
872
873
874
875
878
873
868
866
867
867
865
859
851
847
841
846
847
845
841
834
832
835
828
825
823
820
827
832
835
832
830
831
829
829
829
823
813
807
797
790
789
788
792
801
825
856
901
943
982
1019
1052
1090
1122
1149
1164
1168
1167
1163
1159
1150
1134
1109
1068
1016
957
903
866
842
833
837
844
857
861
856
846
837
829
825
823
819
814
810
809
809
811
809
807
807
813
816
820
819
814
812
813
815
812
809
809
814
816
820
820
818
819
815
815
817
818
814
814
815
816
822
824
824
822
819
817
817
821
819
819
821
825
828
835
832
828
827
825
829
829
827
828
828
829
835
838
838
833
829
829
831
832
831
832
831
832
837
841
841
836
836
833
835
840
840
837
835
837
840
842
841
838
835
835
834
834
831
831
831
835
836
837
834
828
831
827
826
833
825
822
822
826
827
833
829
824
824
820
823
823
817
818
819
820
823
826
821
817
815
815
815
820
816
816
815
813
818
821
821
820
816
813
816
817
817
815
816
815
819
825
824
822
819
819
818
823
824
820
823
822
827
829
831
829
830
830
831
837
834
834
840
848
854
861
862
861
862
862
868
869
866
860
863
865
867
871
867
863
856
851
851
853
852
846
842
839
837
834
832
825
819
816
823
821
819
816
811
813
817
822
819
814
812
811
810
811
807
805
800
796
788
783
778
777
787
806
837
873
911
948
981
1021
1056
1092
1120
1136
1145
1149
1151
1141
1127
1110
1076
1028
971
911
862
828
811
813
826
836
840
834
827
822
816
810
804
796
793
793
793
795
793
796
797
798
803
806
807
803
797
799
800
802
800
799
798
799
803
805
805
804
799
799
802
803
802
797
799
805
811
816
812
808
807
808
810
812
810
812
810
814
816
819
819
818
816
813
815
817
815
811
815
821
823
822
819
819
820
820
819
823
818
818
823
826
830
829
827
827
823
827
824
828
823
819
817
823
825
828
826
820
820
818
820
820
818
817
817
817
821
825
824
821
819
816
817
818
815
816
814
817
816
820
817
814
810
808
812
806
811
805
807
806
808
809
810
805
800
802
803
804
800
797
799
802
806
806
806
802
802
804
807
806
804
804
802
807
813
811
809
809
805
808
810
808
804
803
806
811
813
816
812
812
813
817
820
817
816
814
822
828
834
839
841
842
845
849
852
849
850
851
853
856
856
856
849
848
846
846
841
840
836
836
838
839
831
825
821
817
816
816
811
803
800
799
803
806
804
801
800
800
802
803
802
801
797
792
794
795
788
776
768
761
766
775
797
823
854
897
939
982
1020
1051
1081
1103
1125
1137
1144
1144
1137
1126
1113
1094
1062
1010
945
885
844
821
818
816
823
830
834
833
825
817
805
798
794
796
794
790
787
789
790
793
799
797
799
797
799
799
794
792
789
792
793
797
797
797
797
796
795
796
797
796
794
795
799
802
802
802
804
804
807
806
805
799
799
802
805
808
811
809
807
809
810
808
808
807
808
812
813
816
814
813
811
815
817
817
816
813
811
814
816
822
822
821
821
823
824
824
822
817
814
814
819
824
822
820
821
817
823
821
820
814
813
815
816
820
820
817
816
817
817
820
815
811
811
813
816
815
813
811
812
813
816
808
807
803
801
800
804
806
807
804
801
802
799
799
798
793
791
793
798
801
798
798
801
803
805
804
801
795
793
796
800
801
804
802
802
804
808
805
803
803
802
806
809
808
810
808
810
809
813
815
813
811
813
817
823
821
824
824
833
839
844
845
845
849
854
856
858
857
855
857
858
859
856
847
845
836
837
837
843
840
836
834
828
828
825
820
813
807
804
806
809
810
806
805
804
807
808
808
803
802
798
801
805
804
803
800
795
789
781
772
765
759
763
784
812
852
891
927
963
999
1036
1064
1092
1116
1132
1140
1149
1147
1142
1121
1102
1065
1010
948
880
837
811
809
816
831
836
837
832
825
811
807
797
789
786
786
790
797
798
795
794
793
799
799
795
791
788
790
794
797
797
799
799
799
799
798
797
793
791
792
793
795
795
801
802
804
803
803
803
801
799
802
804
804
805
806
805
812
814
813
810
807
808
812
813
817
816
811
816
818
817
819
817
813
813
815
821
823
822
821
823
828
828
828
824
822
816
823
828
828
828
827
826
826
828
829
827
820
819
818
819
825
826
823
825
822
825
826
825
818
816
819
820
821
823
824
819
817
816
817
818
811
806
806
810
813
817
815
811
813
812
814
813
808
807
804
803
807
811
810
805
806
806
804
802
802
800
799
802
807
811
812
810
809
809
813
812
813
808
803
805
812
814
820
817
813
812
810
813
816
814
813
813
815
818
823
825
827
830
831
834
831
829
829
828
837
846
855
858
856
856
859
862
859
863
861
858
860
866
865
864
858
851
847
845
849
850
847
848
844
840
838
838
830
825
820
817
816
815
812
810
812
812
814
816
816
815
813
814
815
816
810
807
803
801
797
790
780
771
773
786
810
841
874
912
951
992
1029
1067
1099
1122
1142
1147
1159
1159
1148
1138
1120
1094
1056
1004
939
883
843
823
821
830
843
850
845
843
835
829
821
811
804
799
797
802
806
805
806
802
804
805
806
810
806
806
800
802
804
806
805
807
807
809
811
810
809
804
803
807
811
809
809
808
808
812
812
814
814
809
810
810
811
815
814
813
814
817
821
823
822
819
816
815
818
823
826
826
826
829
827
827
828
824
823
824
822
827
829
831
828
829
825
831
831
831
823
825
822
827
830
833
831
831
831
830
833
833
827
826
825
826
830
831
829
830
830
834
829
826
821
822
820
824
823
825
823
825
827
828
828
825
820
819
822
820
820
822
817
822
821
818
820
816
812
815
815
814
813
812
811
816
815
814
817
813
812
816
819
819
815
815
817
819
821
822
821
816
819
818
821
820
823
821
820
821
821
823
823
820
822
826
826
828
829
829
833
838
838
835
832
834
837
845
851
851
854
859
864
870
873
872
871
868
867
870
871
872
872
869
866
870
868
868
865
860
858
856
853
847
844
840
836
843
841
836
835
829
827
827
825
824
824
823
820
829
830
830
827
822
816
815
816
815
809
798
788
785
790
805
828
853
892
935
980
1022
1064
1101
1132
1160
1180
1186
1183
1175
1159
1137
1101
1046
980
918
875
852
841
841
849
854
856
858
854
846
833
825
821
822
820
818
809
808
809
807
814
816
817
817
817
819
819
820
819
818
815
820
821
820
822
818
822
821
824
823
820
817
815
819
824
825
827
824
826
827
829
828
825
818
818
820
824
826
830
832
832
835
840
834
830
828
831
834
833
832
832
830
835
840
841
842
840
840
840
843
844
843
839
839
839
845
848
850
848
843
845
847
845
847
842
841
843
850
848
846
843
839
841
845
848
846
842
842
845
852
849
845
844
841
841
844
840
841
841
839
844
844
841
841
839
841
842
843
840
834
835
837
833
837
837
832
830
828
827
828
823
824
825
831
836
838
836
835
835
839
840
840
839
837
836
842
841
842
841
838
835
834
839
841
837
835
837
836
844
846
848
851
852
853
854
855
849
851
851
858
864
872
873
875
876
876
881
884
888
886
883
882
883
890
889
889
883
881
880
878
877
874
871
872
871
867
864
856
846
846
842
840
837
838
836
835
840
842
840
840
840
840
843
843
842
838
829
836
833
825
811
801
792
793
804
827
856
894
940
987
1027
1065
1096
1119
1148
1162
1176
1180
1175
1165
1152
1132
1100
1046
978
912
868
842
843
848
857
868
876
874
864
856
845
838
833
832
831
828
824
821
822
826
828
834
835
834
838
841
841
836
829
832
833
835
836
837
832
832
833
835
838
837
834
833
838
841
842
845
838
840
840
840
840
837
835
837
839
844
845
845
842
842
849
853
852
852
845
843
841
847
855
857
857
854
854
853
851
849
847
850
855
857
859
857
857
862
867
864
863
863
859
853
851
855
855
854
854
851
852
856
855
855
856
853
858
862
863
860
855
851
851
849
853
851
843
844
851
851
851
853
849
846
850
849
852
853
847
846
847
848
845
843
847
845
849
849
846
845
841
840
843
847
851
850
848
846
842
843
840
839
841
843
847
854
853
853
849
847
843
847
849
845
843
847
851
858
859
860
860
859
859
864
867
870
873
878
885
892
892
894
895
895
899
899
895
891
888
887
889
889
887
884
887
889
883
878
875
864
860
857
858
857
856
853
852
852
852
850
846
845
842
845
847
855
853
852
851
847
847
842
832
821
807
803
806
815
830
852
886
929
973
1013
1041
1067
1094
1121
1144
1164
1172
1171
1169
1161
1153
1130
1093
1038
973
911
869
850
845
852
866
879
883
881
869
857
846
839
837
839
836
837
834
836
838
841
842
840
836
838
839
845
847
847
848
842
844
847
846
847
840
840
840
845
849
848
848
844
839
841
841
845
838
840
845
845
853
854
851
847
847
850
851
851
851
848
850
854
858
862
862
860
858
859
859
860
861
859
858
859
864
864
863
861
864
865
867
869
865
863
862
864
867
870
872
870
862
860
862
863
866
865
863
863
866
868
867
862
857
856
859
859
858
856
852
855
856
862
860
861
858
855
849
848
848
850
849
849
850
852
856
852
851
847
845
847
845
850
845
847
845
848
848
848
848
843
839
837
840
840
840
839
840
842
844
847
847
845
840
838
841
843
844
845
841
841
842
846
848
848
844
843
838
842
845
845
846
844
845
848
849
850
849
846
843
845
847
853
853
850
852
852
856
857
856
858
850
850
862
867
872
876
877
879
881
886
886
886
881
883
884
887
892
896
892
885
880
878
881
875
873
867
863
866
866
859
854
848
843
841
839
835
831
830
827
831
834
836
834
829
827
829
830
830
826
822
827
825
822
820
812
803
792
785
794
812
841
876
913
957
997
1037
1068
1096
1118
1138
1153
1161
1156
1153
1141
1131
1121
1105
1071
1019
956
892
851
827
822
830
839
846
850
851
851
839
830
815
808
807
810
810
811
808
808
809
813
818
816
813
811
815
815
814
812
813
814
819
820
820
814
816
813
817
817
813
816
814
818
818
821
818
816
818
816
818
816
812
814
819
825
829
831
828
825
826
826
826
824
822
820
825
828
831
830
833
830
832
831
830
830
827
825
828
832
838
838
834
833
831
832
831
829
831
830
829
833
835
838
833
830
829
829
828
825
821
824
828
832
829
827
826
827
824
823
825
823
819
819
824
826
830
828
824
821
825
820
818
817
812
811
814
819
819
818
814
810
810
812
812
809
806
801
800
810
809
808
806
803
805
807
808
808
803
801
804
811
814
815
814
811
810
809
810
811
808
807
811
813
818
818
817
814
815
815
816
817
817
814
824
825
828
831
829
831
837
838
841
841
844
849
855
857
858
857
856
856
854
856
853
849
845
843
844
847
845
844
840
836
832
830
822
817
813
809
813
815
815
813
811
811
810
809
808
806
804
803
806
810
811
809
805
797
793
785
773
763
761
771
793
825
860
898
937
978
1017
1055
1086
1116
1128
1137
1146
1137
1128
1112
1089
1055
1005
939
879
835
810
800
811
827
839
834
831
824
816
809
799
793
787
791
795
797
798
796
795
792
794
798
797
795
792
793
795
801
802
799
796
800
800
799
798
796
792
791
795
803
803
803
799
804
804
804
806
802
800
804
807
814
813
815
811
806
810
812
809
808
808
813
815
820
820
821
817
820
820
819
819
816
811
811
820
823
823
824
817
819
821
824
821
819
817
818
822
826
826
826
825
823
823
823
822
819
813
814
817
821
822
819
820
818
816
819
818
816
813
813
817
822
821
821
817
816
816
815
818
817
808
807
808
810
809
810
806
808
804
806
807
803
798
797
801
801
803
800
800
800
802
800
800
796
794
798
803
808
804
803
802
805
803
801
801
800
797
797
801
804
808
807
807
809
810
810
810
808
805
806
809
815
819
818
819
816
818
821
823
820
821
822
828
837
847
849
849
851
845
850
854
855
854
851
849
854
856
853
853
848
843
842
839
841
839
836
832
826
825
823
816
813
811
808
809
804
805
800
801
805
807
811
808
802
803
804
806
805
802
798
795
794
788
783
774
769
777
793
816
851
887
924
962
1002
1037
1070
1098
1117
1128
1139
1139
1140
1131
1117
1101
1076
1037
980
917
859
823
805
801
814
826
833
830
825
819
812
801
793
790
788
787
789
791
788
789
791
797
795
796
795
798
796
793
793
789
793
794
798
799
801
799
797
799
801
800
798
794
796
800
803
806
804
804
806
809
806
805
803
801
803
808
811
812
812
810
813
815
813
812
811
812
813
819
818
818
818
819
816
821
820
815
817
818
815
824
825
827
824
826
821
824
826
824
818
816
819
822
822
820
817
820
821
822
820
815
814
817
820
818
821
819
817
820
820
823
819
816
810
812
815
815
816
816
814
818
816
818
812
807
808
807
807
807
806
804
805
807
808
805
803
797
796
799
802
802
803
801
806
808
810
804
799
804
802
808
807
806
805
807
811
813
814
810
809
808
806
808
810
809
812
814
817
822
821
821
818
820
823
822
821
818
824
830
838
842
843
844
846
853
859
863
865
862
860
860
862
864
865
859
854
854
852
852
851
850
848
844
843
843
842
835
827
822
820
819
818
820
820
817
816
818
817
815
810
806
801
806
809
812
812
815
810
813
808
796
784
772
767
772
790
818
853
894
939
985
1023
1057
1087
1116
1140
1157
1167
1168
1166
1157
1142
1121
1083
1031
963
902
858
832
827
832
835
850
853
850
842
832
819
810
800
800
805
807
809
809
811
813
814
812
809
807
805
808
813
813
812
809
808
809
811
815
812
806
803
808
810
812
814
815
813
814
816
822
819
815
814
815
816
819
815
817
817
821
823
823
824
822
821
820
827
829
828
827
826
827
829
832
829
828
823
823
827
833
838
835
835
835
835
835
835
835
832
831
835
838
844
847
843
840
836
837
839
840
840
837
835
834
836
837
838
835
834
834
838
839
838
836
836
835
836
838
838
836
834
831
831
835
839
835
835
830
831
833
836
835
833
829
829
829
832
827
824
820
819
821
825
826
827
824
823
821
827
825
824
821
821
821
821
824
822
820
821
824
825
826
823
823
820
826
831
835
837
835
832
830
831
835
835
833
830
830
837
841
838
840
837
838
841
844
848
847
847
848
857
868
873
873
872
872
874
875
878
880
877
878
880
885
880
876
873
870
869
866
862
852
850
849
852
853
852
845
838
835
834
835
832
831
829
833
833
834
838
837
835
833
831
831
832
827
820
815
812
805
794
789
792
800
826
861
906
949
984
1021
1053
1088
1117
1142
1155
1162
1170
1170
1164
1149
1130
1094
1041
983
923
878
845
833
837
851
868
871
866
860
851
845
836
827
824
819
819
819
820
819
824
829
831
836
837
833
831
830
832
829
829
828
827
826
832
834
837
834
830
828
831
832
833
833
835
831
836
842
842
841
838
834
832
836
837
839
839
842
843
848
852
850
847
846
846
844
848
845
844
847
853
861
859
855
852
846
845
848
849
851
850
854
857
861
857
858
852
850
855
853
849
847
852
855
856
857
853
845
848
849
850
849
851
852
854
856
857
853
849
844
844
847
848
854
850
847
853
849
849
854
849
846
849
850
850
850
844
842
842
845
846
845
842
841
845
846
846
843
836
832
836
841
848
850
848
846
846
847
842
840
841
836
839
842
847
845
843
847
849
848
851
850
850
855
859
865
868
872
868
870
872
876
877
882
883
885
892
895
898
897
892
888
892
893
890
887
881
877
879
882
885
883
879
872
866
862
860
856
852
847
848
856
855
851
847
843
841
842
844
847
843
838
841
843
844
847
842
833
827
816
810
800
799
812
837
874
917
960
1000
1037
1067
1102
1129
1152
1160
1166
1166
1164
1157
1139
1107
1059
998
933
881
847
835
842
861
879
889
885
877
862
852
848
840
833
829
833
836
837
842
841
840
836
842
844
845
842
838
835
835
843
842
847
841
840
839
840
844
842
839
840
843
847
850
850
843
848
850
850
848
847
846
844
851
855
859
859
857
855
855
857
858
857
853
852
856
864
867
868
864
862
863
864
864
863
860
860
866
870
867
870
866
866
867
868
867
866
864
861
864
870
870
868
866
865
864
863
862
859
854
858
857
863
866
865
862
858
858
859
856
857
855
850
852
856
862
858
859
856
854
852
852
855
849
845
843
852
854
855
851
846
843
844
845
844
839
839
839
838
840
843
839
837
836
839
839
837
834
835
839
843
846
845
844
837
837
840
840
842
840
840
838
838
843
848
845
839
838
839
843
842
839
838
839
840
845
853
851
849
847
847
847
850
851
854
856
860
864
874
876
878
877
877
875
878
881
878
879
881
882
884
885
878
873
866
866
865
864
862
856
854
848
845
843
838
834
829
832
831
831
829
823
826
827
826
830
824
825
822
824
826
824
819
812
808
798
797
795
801
815
840
873
914
955
992
1024
1058
1091
1122
1144
1154
1158
1156
1152
1142
1128
1114
1082
1037
982
923
872
834
818
819
830
844
850
847
840
827
825
822
817
811
808
804
809
806
807
806
804
808
812
820
818
816
812
811
812
812
810
810
809
810
812
819
821
819
811
807
810
810
813
814
814
813
814
817
821
823
817
813
813
813
818
820
821
821
819
822
827
828
826
824
822
824
822
825
826
825
826
827
832
836
832
825
824
826
830
830
830
830
831
833
836
839
837
832
832
827
831
831
829
830
829
833
833
833
828
827
825
827
826
823
824
825
827
830
830
829
825
818
815
821
821
819
818
820
821
824
827
827
822
814
812
814
815
818
815
811
810
812
813
816
813
808
803
802
803
803
806
806
803
802
806
807
805
801
799
795
797
801
806
806
805
804
807
811
813
807
803
801
804
808
809
810
812
813
816
820
821
818
816
817
818
820
823
824
829
834
843
847
848
847
846
845
849
852
851
851
852
851
851
853
851
847
838
837
839
844
841
837
830
826
822
822
821
816
807
800
799
803
802
805
803
802
804
803
802
801
798
796
796
800
798
798
795
787
778
774
767
764
768
777
800
834
875
918
961
992
1023
1056
1092
1119
1134
1140
1140
1136
1131
1119
1101
1074
1028
969
906
848
812
795
792
806
819
831
833
828
815
804
797
791
787
783
782
780
784
788
791
789
786
786
789
791
793
791
790
787
787
791
792
797
796
795
794
793
787
789
789
787
789
789
796
800
799
795
795
795
797
798
797
798
798
799
802
806
803
803
799
800
804
805
806
803
806
811
813
814
811
810
811
813
815
816
815
814
808
810
815
819
820
819
815
813
815
816
818
817
815
815
815
819
818
817
813
808
808
812
810
810
809
809
807
814
815
814
813
809
804
806
802
803
804
804
807
807
812
810
813
806
801
801
802
801
805
801
799
800
802
803
803
800
796
793
793
794
792
791
788
790
792
795
792
790
786
782
783
786
789
790
788
788
788
790
794
790
787
786
783
789
794
793
792
797
799
799
800
799
799
797
796
801
800
801
799
798
802
806
813
820
823
822
825
826
835
839
846
846
845
845
844
845
842
838
832
830
833
835
835
832
831
831
828
825
816
809
803
798
798
800
798
794
793
792
792
792
789
783
784
783
790
789
788
786
788
789
788
784
771
757
747
748
756
776
803
839
881
926
968
1006
1039
1064
1093
1120
1141
1154
1161
1156
1152
1137
1122
1088
1040
973
905
844
809
798
798
808
820
825
827
825
816
800
785
774
771
776
782
786
785
784
784
786
784
780
775
771
776
780
784
788
786
784
783
782
776
777
780
780
783
782
785
787
790
788
786
782
780
781
783
785
792
792
791
792
791
791
789
787
787
788
794
794
793
790
797
798
805
807
803
800
798
799
796
801
801
800
803
804
808
811
806
805
801
806
811
814
815
810
810
812
816
818
816
814
809
809
807
804
805
805
807
811
815
816
812
805
802
802
802
800
799
799
803
809
812
817
813
811
806
806
807
803
801
799
800
801
803
804
802
798
795
794
798
798
801
798
797
797
804
809
806
806
795
798
799
796
794
794
794
799
804
806
803
805
804
805
809
815
814
815
813
813
820
826
830
825
829
834
839
845
848
849
850
854
859
858
853
848
845
841
843
842
839
840
837
839
837
825
819
812
812
814
817
816
810
809
808
810
810
810
807
805
803
807
806
801
800
802
802
804
803
795
783
771
761
762
771
787
814
848
889
931
973
1006
1037
1069
1096
1122
1136
1144
1145
1141
1133
1122
1098
1058
998
930
869
828
809
806
814
829
839
845
842
831
814
802
793
795
797
799
800
804
805
812
814
809
803
801
802
802
810
807
809
806
805
803
805
806
802
801
802
804
809
814
812
811
809
812
815
814
815
810
804
807
812
817
814
813
814
818
824
827
822
820
816
815
817
819
822
823
826
828
831
834
834
828
823
821
823
824
822
822
821
821
828
833
837
833
829
829
827
829
826
825
828
830
836
834
833
831
829
828
828
828
825
827
827
827
827
832
833
826
822
820
824
827
826
825
825
827
833
831
829
825
821
819
822
826
827
825
822
822
827
826
826
822
820
815
817
820
821
821
821
820
823
824
828
827
821
819
819
822
824
825
823
825
826
831
831
833
828
826
828
829
836
834
837
841
846
849
849
846
842
841
849
858
860
864
868
866
874
873
878
876
871
869
872
871
872
873
868
865
873
873
874
871
865
862
856
853
852
847
842
839
847
843
840
840
835
831
830
832
833
836
834
834
839
837
839
838
835
826
822
815
806
797
797
808
828
865
907
955
1000
1038
1081
1112
1138
1156
1168
1168
1169
1158
1146
1132
1111
1082
1037
982
924
871
838
831
836
851
866
871
869
859
853
846
838
832
831
825
826
830
832
833
829
825
826
829
832
834
837
832
836
841
839
838
835
832
829
833
836
838
835
833
837
843
842
840
836
836
836
839
842
842
843
845
847
848
848
844
840
842
845
842
841
843
844
848
848
854
854
849
848
850
851
849
847
846
849
853
858
858
855
850
846
851
852
850
847
848
851
852
851
856
851
846
842
847
847
846
843
845
842
847
847
849
844
842
840
841
841
838
835
838
843
840
844
846
841
838
837
834
836
833
834
832
833
836
839
837
834
831
828
827
823
821
820
823
828
831
827
827
826
822
822
825
822
820
817
819
824
826
829
826
823
825
824
825
825
819
820
821
828
832
834
834
832
832
833
839
837
833
832
834
841
847
849
851
855
857
864
867
872
870
866
871
871
872
874
870
865
863
860
864
862
860
856
857
856
854
854
846
837
833
829
825
825
822
819
818
818
824
826
823
820
816
816
817
818
816
813
809
809
810
810
808
797
785
777
775
786
802
827
861
899
941
982
1023
1056
1086
1112
1135
1145
1150
1146
1144
1132
1125
1116
1098
1069
1014
945
883
839
814
807
816
826
837
845
845
838
826
813
805
801
801
803
806
805
804
804
809
807
808
806
800
801
804
807
808
806
806
810
812
813
812
806
807
806
810
810
806
811
808
815
815
816
816
812
809
809
810
816
818
820
819
819
824
824
822
819
818
817
820
824
826
827
825
827
831
831
832
828
822
820
821
828
829
830
832
830
831
830
832
831
831
824
823
826
833
833
836
834
828
831
830
830
827
825
820
820
821
826
828
821
824
819
823
825
822
819
816
817
819
827
826
823
823
821
822
821
823
822
819
813
811
817
822
822
819
816
815
814
815
811
809
805
806
805
807
810
812
807
803
804
804
806
804
801
798
803
808
809
809
808
806
806
806
810
806
804
804
808
811
815
817
816
814
813
812
818
820
817
819
822
823
834
835
835
839
841
845
848
844
849
846
849
855
855
857
853
849
846
849
848
844
842
837
839
841
840
835
825
815
812
812
810
808
802
802
804
809
811
809
807
804
797
804
802
801
799
798
800
801
801
795
781
776
765
767
774
788
807
839
878
919
964
1001
1034
1067
1088
1113
1130
1139
1143
1136
1125
1117
1106
1081
1027
956
887
835
802
794
794
809
823
833
830
816
804
797
791
790
790
791
789
787
794
798
801
800
796
797
798
800
798
797
795
797
802
804
803
803
802
804
804
803
806
801
800
802
803
809
809
810
808
807
808
811
809
808
807
808
812
815
816
816
815
814
816
819
819
817
813
813
818
822
822
825
819
821
820
820
822
818
817
821
824
827
825
823
826
825
823
824
821
820
820
822
825
828
826
822
824
824
824
826
823
815
814
816
819
824
821
818
815
818
819
817
815
812
813
816
820
823
821
821
821
820
820
819
816
812
804
806
812
815
813
812
810
809
810
809
806
803
798
798
802
804
806
803
801
804
807
807
803
798
799
800
803
801
803
807
809
810
812
808
807
809
810
816
818
819
819
817
819
823
827
826
826
832
835
844
850
854
855
858
859
860
860
856
852
849
847
846
844
842
842
840
839
838
836
828
817
811
809
811
816
815
815
813
814
813
815
814
810
803
800
800
806
811
812
813
810
808
809
803
791
778
766
767
776
793
811
838
879
919
960
996
1027
1055
1081
1108
1135
1151
1155
1159
1154
1144
1131
1105
1064
1010
941
885
843
825
818
824
833
842
847
841
831
823
810
807
804
805
805
805
798
797
799
801
800
801
800
805
809
812
813
813
807
802
801
804
803
810
805
802
806
810
815
815
812
808
806
807
809
809
805
805
805
813
814
819
814
812
811
813
812
811
810
810
815
820
824
827
821
817
817
820
819
819
814
817
822
826
824
830
826
825
824
826
824
824
824
821
825
829
834
839
839
833
828
826
827
832
831
829
829
830
833
835
834
833
825
822
822
825
824
823
823
827
829
834
837
837
833
829
827
822
825
824
824
826
828
830
829
825
823
825
823
828
824
822
820
822
822
825
822
816
817
817
820
818
817
813
816
820
823
824
821
819
818
819
820
824
827
827
825
830
834
841
842
838
835
837
843
845
850
853
855
860
866
872
875
878
875
869
865
869
871
870
872
869
868
867
866
865
862
859
858
857
855
854
848
840
835
836
834
834
829
826
824
828
827
823
823
821
826
831
831
830
831
824
819
819
813
802
787
779
783
794
817
848
882
918
960
1005
1037
1068
1102
1129
1148
1161
1166
1162
1155
1137
1117
1086
1037
976
911
860
832
824
831
842
852
856
858
850
841
829
818
812
812
812
814
812
813
810
813
817
816
816
818
821
826
823
822
821
819
815
817
812
809
809
811
821
820
819
818
816
819
822
822
820
818
819
820
822
819
816
819
819
822
821
816
815
818
820
824
826
824
824
824
825
828
825
825
822
820
822
823
825
825
826
829
829
830
830
825
821
822
823
827
828
827
826
827
829
828
829
827
822
819
823
826
826
825
826
826
825
822
821
818
816
817
818
824
820
822
825
825
826
821
818
814
809
810
814
813
813
813
819
820
821
817
809
807
807
808
810
812
811
811
813
817
818
814
812
810
812
813
815
815
814
815
817
819
819
815
811
816
818
818
819
822
825
829
832
834
835
835
838
846
849
853
853
856
862
863
861
859
861
862
858
857
852
847
847
847
848
851
855
850
837
835
828
826
824
819
818
818
821
823
821
816
812
811
812
813
813
811
809
809
816
820
822
814
807
799
792
781
778
775
785
803
838
881
925
967
1002
1035
1064
1091
1118
1132
1139
1143
1138
1135
1128
1117
1095
1061
1011
949
887
842
813
805
814
830
849
851
844
832
820
814
806
801
797
797
800
805
808
809
807
805
803
804
809
811
811
808
808
810
814
817
816
812
809
813
809
813
812
810
810
812
817
819
818
817
813
811
813
814
819
815
814
817
822
824
822
819
815
818
819
822
826
822
822
823
827
829
832
831
824
823
826
827
827
828
826
828
831
835
836
833
826
821
824
823
825
828
827
826
827
829
831
829
826
823
817
820
821
823
823
820
821
821
822
824
821
818
816
814
817
819
816
815
817
818
819
820
817
815
809
812
812
818
818
815
814
813
811
815
814
808
802
801
802
804
807
805
803
802
802
802
799
800
798
793
792
799
803
805
805
801
799
802
801
799
797
795
796
802
804
804
798
802
803
803
803
800
797
793
799
807
813
815
812
812
814
817
819
821
820
822
828
834
841
842
843
844
843
844
844
843
838
835
831
834
837
832
830
825
823
824
822
818
811
802
799
799
800
801
798
793
788
787
788
786
783
779
779
782
786
787
787
785
783
784
783
773
765
754
746
747
760
776
801
836
876
923
961
996
1025
1053
1078
1101
1119
1125
1126
1115
1104
1092
1074
1039
986
920
856
808
781
776
779
792
804
814
812
803
790
780
771
773
773
777
772
770
770
771
774
775
771
771
769
773
778
783
784
783
779
775
781
777
777
774
772
776
777
780
780
782
781
784
783
782
778
778
782
785
788
785
787
787
791
794
794
789
785
786
790
792
798
795
794
793
796
797
799
797
794
790
793
797
799
802
798
796
800
800
799
796
791
791
795
801
802
803
800
797
798
800
801
793
791
790
792
796
796
793
793
795
798
795
792
790
786
787
787
788
787
786
790
790
791
788
787
782
782
778
781
782
780
779
784
783
784
779
775
773
774
773
775
771
767
770
773
770
775
773
769
766
767
770
771
769
769
772
773
776
778
775
773
771
770
772
782
778
777
779
784
786
791
788
786
784
785
788
792
796
801
802
807
813
819
819
820
817
814
815
816
819
819
816
814
815
815
815
808
804
802
803
802
799
794
789
786
786
782
780
778
770
770
773
772
775
774
768
769
771
774
776
774
770
764
765
769
767
762
756
747
743
739
745
756
774
800
833
878
921
962
1003
1036
1067
1094
1107
1116
1116
1108
1097
1084
1066
1037
985
919
859
811
785
773
775
782
794
803
806
795
787
775
770
766
768
764
762
758
761
761
763
765
766
768
772
777
776
771
768
767
769
770
771
768
770
773
776
776
776
774
771
771
772
772
775
775
775
777
780
783
786
781
779
778
780
782
787
789
787
788
789
790
795
794
791
785
786
786
791
795
795
794
797
798
797
799
795
793
792
791
792
794
798
796
795
798
797
799
798
794
795
791
791
796
795
793
793
797
798
796
792
789
789
788
790
790
791
789
792
791
794
791
789
786
781
784
787
788
788
785
790
790
788
790
786
778
776
776
781
781
781
779
779
780
780
781
780
774
771
770
772
775
776
773
776
777
782
780
778
774
774
776
776
784
784
783
781
781
782
784
780
780
780
778
784
789
789
794
795
796
798
794
793
793
798
803
807
809
816
821
828
830
834
831
827
826
825
825
828
828
826
823
821
821
820
819
815
813
808
805
802
800
795
791
788
785
787
785
785
780
779
779
781
783
785
779
779
782
786
782
780
774
767
763
758
753
749
746
749
761
790
820
858
901
944
985
1027
1070
1101
1127
1143
1146
1142
1134
1114
1096
1061
1014
948
883
830
793
784
789
803
812
815
812
804
798
791
785
778
772
775
775
776
774
771
764
766
772
774
776
776
775
780
782
782
779
774
775
777
777
779
780
777
779
780
780
784
780
778
775
776
782
784
785
787
788
791
791
793
790
786
784
783
787
789
790
791
791
797
801
803
802
799
794
796
798
799
800
801
802
802
802
807
803
802
799
801
806
810
812
808
810
812
814
811
807
807
801
803
801
805
805
804
803
801
809
809
806
801
801
801
800
806
807
808
806
809
808
811
806
800
798
799
797
800
799
800
800
806
807
807
803
797
796
797
796
791
796
791
794
795
797
792
789
787
787
791
789
786
790
791
795
802
801
799
797
795
797
802
800
798
792
797
797
805
808
810
810
812
811
812
813
807
807
809
815
826
832
830
834
831
835
839
846
846
846
848
849
856
855
854
851
845
841
845
839
842
839
838
836
838
835
830
820
815
812
812
804
806
803
805
806
810
810
807
802
800
800
802
805
802
801
802
803
801
796
779
768
761
758
766
784
807
837
866
904
946
985
1019
1052
1083
1109
1132
1149
1157
1156
1153
1141
1126
1108
1080
1027
962
899
850
822
812
817
822
830
838
841
841
832
822
809
801
793
795
798
802
802
800
799
799
803
802
802
801
801
802
807
808
805
804
805
806
807
806
803
805
799
803
804
808
807
805
809
811
814
812
810
803
802
806
810
816
817
811
810
810
812
815
814
812
811
812
814
820
818
817
815
814
813
818
822
818
816
818
819
826
829
829
827
824
826
824
828
823
821
821
821
825
830
831
831
828
826
828
829
827
825
821
821
826
831
831
831
830
826
823
823
825
823
823
824
828
830
833
827
826
825
827
827
824
818
816
821
822
828
827
826
823
819
816
820
818
817
817
816
816
820
824
822
817
815
812
815
815
814
814
812
811
817
821
824
821
818
815
818
816
822
824
821
823
825
830
831
835
835
831
827
829
832
836
841
842
844
852
857
861
866
865
863
863
862
865
867
867
863
864
864
864
861
853
850
850
851
855
854
850
841
836
832
832
833
833
829
819
819
821
820
823
820
821
822
822
823
820
817
815
813
816
816
815
806
796
786
780
780
792
808
835
873
917
965
1010
1048
1078
1107
1137
1156
1163
1166
1159
1153
1146
1133
1117
1084
1031
971
908
859
829
820
823
831
847
856
850
841
831
824
817
812
806
806
806
812
814
814
815
815
818
818
824
821
819
812
811
813
817
820
821
819
821
820
822
824
823
819
818
820
823
827
828
829
824
824
827
830
831
830
825
822
825
827
832
832
833
833
832
836
835
834
829
830
832
836
838
837
840
839
841
840
841
838
834
835
834
837
840
840
839
843
844
843
840
838
837
836
842
840
839
837
839
842
843
840
837
831
830
833
833
832
834
834
838
841
844
842
837
833
834
833
833
835
831
830
831
836
837
835
829
823
823
823
824
826
826
824
826
823
827
826
822
818
811
812
817
821
822
817
820
819
826
827
822
817
813
815
818
819
823
822
825
828
825
827
823
823
821
823
827
826
827
828
832
839
840
837
832
833
832
836
842
847
849
853
860
867
872
876
871
868
868
865
870
872
870
868
863
864
863
866
863
861
855
855
855
854
849
840
836
833
831
833
827
823
818
818
818
822
824
823
820
819
821
826
822
820
816
810
813
811
804
796
787
785
790
805
825
858
897
940
985
1027
1062
1094
1123
1145
1158
1164
1159
1149
1140
1124
1108
1085
1040
978
917
865
832
819
818
826
837
840
845
838
829
823
813
810
808
812
808
809
802
801
804
807
812
810
808
812
813
814
814
811
806
805
809
812
815
815
816
815
814
819
818
817
812
809
813
815
817
820
822
822
822
823
822
821
816
819
821
825
827
828
827
828
829
832
832
832
829
827
825
831
832
834
834
833
834
837
836
831
831
829
832
832
839
841
841
840
840
838
841
840
839
834
833
833
838
836
838
836
834
835
834
833
830
827
827
830
833
837
832
830
830
829
830
830
830
825
825
827
832
833
828
829
829
831
830
823
821
819
819
822
822
820
816
817
818
820
817
816
811
809
809
810
811
814
814
813
814
814
815
815
810
810
814
817
819
818
818
819
821
821
822
819
819
818
821
819
827
828
829
831
832
836
834
834
830
830
838
846
852
861
862
864
866
872
871
864
858
862
865
866
869
867
862
861
859
858
854
847
843
840
833
831
826
821
822
825
825
823
823
817
815
813
814
815
818
816
814
819
819
820
817
812
810
802
792
787
783
780
783
800
825
858
894
932
971
1013
1050
1085
1117
1138
1155
1164
1165
1159
1145
1124
1104
1069
1015
951
890
847
821
816
827
842
849
852
842
834
822
815
810
808
807
809
812
810
805
805
804
807
810
810
810
809
812
814
816
810
808
808
807
809
809
813
809
812
813
816
817
814
814
811
816
815
818
818
819
817
820
827
822
823
817
814
818
820
823
822
827
827
830
832
834
833
829
830
831
833
836
835
835
837
840
845
840
836
835
834
836
837
838
830
835
839
839
845
840
838
835
832
831
834
831
828
831
834
835
834
831
834
833
830
833
829
826
821
824
831
835
839
834
830
830
830
826
828
825
821
821
823
827
827
824
823
817
818
818
816
813
812
812
814
816
821
819
815
814
814
815
816
816
812
813
816
820
826
822
820
815
818
819
820
820
820
820
826
827
831
828
826
825
823
826
827
833
830
831
835
839
844
846
847
847
853
858
864
864
866
869
870
876
879
877
875
870
868
870
868
865
863
860
856
861
863
860
856
847
840
833
832
832
831
827
826
824
828
829
828
824
818
818
819
817
822
822
823
823
826
828
826
817
806
796
787
781
784
789
805
821
855
892
934
973
1011
1044
1075
1108
1138
1157
1167
1165
1166
1157
1144
1131
1104
1060
1007
947
892
857
836
830
836
846
857
862
854
851
836
823
814
810
814
815
813
811
812
813
814
811
809
806
806
814
818
819
821
814
814
812
815
817
814
810
810
814
819
822
823
820
815
816
818
818
821
819
818
818
823
828
833
832
826
823
822
824
826
825
825
826
830
832
836
838
834
832
835
835
833
833
831
831
830
837
842
844
844
840
836
836
838
837
838
838
840
843
848
847
843
845
840
844
845
843
842
840
843
839
840
844
843
839
840
838
840
840
840
841
838
838
839
842
840
838
835
834
835
834
839
838
839
836
838
835
839
841
840
837
828
827
826
832
833
834
830
830
832
832
830
824
823
823
823
827
827
825
822
821
821
826
827
825
822
821
825
829
834
836
835
830
828
828
828
827
829
827
829
835
840
843
845
839
836
842
842
847
843
843
844
851
859
865
870
869
872
875
883
885
883
877
877
878
882
885
884
881
876
874
872
871
872
867
865
859
857
853
850
844
839
838
840
835
829
827
825
831
836
838
836
836
836
833
835
831
822
818
820
819
812
803
796
797
805
826
853
890
925
965
1010
1047
1088
1119
1145
1163
1178
1185
1184
1182
1173
1160
1141
1109
1066
1005
942
891
859
846
847
859
867
867
862
855
849
845
839
832
826
822
821
822
824
820
821
820
824
828
826
824
824
825
823
824
822
818
820
828
832
830
831
825
826
831
834
833
832
828
830
833
835
836
833
833
826
829
833
836
835
830
831
830
835
838
839
839
844
844
847
841
834
833
835
840
846
852
850
848
845
844
848
849
844
844
846
850
855
857
858
856
853
855
852
852
850
846
846
847
847
851
852
851
848
852
851
849
846
843
841
851
853
851
849
847
848
852
849
847
844
842
841
845
847
847
843
846
846
847
845
840
838
839
838
844
843
844
840
840
841
840
838
835
831
828
833
836
837
839
838
840
839
841
841
838
836
834
835
837
844
847
843
842
845
845
849
850
845
848
847
850
855
857
858
860
863
870
876
874
877
878
885
891
891
891
890
891
893
893
893
888
882
879
875
878
881
879
875
873
866
865
860
856
848
846
843
845
846
846
845
840
839
840
840
840
836
833
833
834
838
842
837
832
829
824
817
809
797
790
792
806
832
863
904
941
974
1005
1039
1072
1103
1130
1150
1163
1174
1179
1177
1171
1151
1128
1087
1030
966
903
855
834
834
849
862
868
865
860
851
843
834
825
822
818
821
824
826
825
823
820
817
823
824
822
821
819
820
826
827
827
823
819
817
825
824
822
824
818
819
821
829
833
828
826
823
822
826
827
828
823
825
827
830
834
831
832
827
825
829
830
832
830
831
833
837
836
835
836
834
835
834
834
833
834
837
842
841
841
841
840
834
836
837
838
837
836
840
843
848
845
842
836
837
838
837
835
834
832
835
837
840
838
836
833
833
834
833
831
830
827
829
833
833
834
836
831
828
827
829
828
825
822
821
823
826
828
826
820
814
814
812
816
813
812
811
807
809
809
811
810
806
803
803
805
805
805
805
808
811
815
812
806
806
807
806
806
806
802
803
809
812
812
813
812
811
813
811
812
812
813
815
819
827
831
829
829
831
836
837
839
839
835
837
841
842
843
839
831
824
821
818
816
813
808
807
806
805
802
795
788
781
772
773
770
769
764
762
761
761
763
760
754
751
743
743
744
743
742
742
740
735
726
719
704
693
691
699
718
743
776
816
858
901
939
970
999
1022
1044
1058
1064
1059
1050
1036
1021
992
948
875
803
744
703
691
689
696
706
712
713
710
701
688
677
666
661
658
662
662
658
655
660
662
664
659
658
657
656
656
651
650
647
646
650
652
654
651
646
646
646
647
643
638
644
648
651
648
648
646
645
645
643
641
640
636
642
646
647
644
645
645
645
642
643
637
636
637
637
643
640
637
637
636
639
641
637
634
629
630
633
637
637
636
636
631
634
634
633
630
628
625
627
630
629
628
632
630
629
631
631
625
621
621
622
625
626
628
626
625
627
628
629
622
618
620
620
622
622
620
622
623
623
621
612
612
609
608
608
612
611
607
608
609
607
607
602
599
600
602
603
607
607
605
608
610
605
602
604
601
603
607
611
612
610
611
614
618
620
614
613
611
614
613
619
623
626
625
621
625
629
629
629
626
631
635
642
648
650
651
654
657
655
654
650
648
649
648
645
648
645
645
643
644
646
637
630
628
624
625
623
623
618
620
620
621
621
620
620
613
614
615
617
620
622
620
621
622
621
618
613
602
596
588
584
586
593
603
624
645
681
718
750
785
822
858
893
935
963
978
982
980
968
958
943
922
888
838
775
714
674
645
632
627
635
646
650
656
649
637
623
620
620
617
618
615
617
614
616
616
615
614
614
614
619
623
627
624
622
619
622
622
623
623
617
624
626
632
633
632
632
627
628
627
629
630
628
630
629
635
639
638
636
635
635
636
639
638
638
641
643
645
652
653
652
649
646
648
650
653
656
653
655
656
658
661
662
656
657
659
657
658
660
661
661
666
668
669
667
666
664
665
664
664
664
663
664
666
669
670
669
666
663
663
666
663
667
669
669
667
668
670
672
671
666
665
668
666
668
669
666
666
669
669
670
664
663
658
658
659
663
665
664
660
662
662
664
661
656
654
652
654
657
659
653
654
657
659
660
659
659
655
653
656
660
662
664
664
666
666
668
667
668
663
662
663
669
674
674
678
681
684
686
682
685
686
693
700
707
707
712
711
719
723
724
721
719
718
717
717
715
713
710
709
714
716
716
712
704
698
696
695
692
694
690
686
688
694
692
690
687
684
679
683
686
688
689
686
689
691
692
690
689
683
674
667
662
659
657
666
682
709
749
792
836
881
926
967
1006
1033
1050
1056
1056
1050
1039
1018
994
955
901
839
781
734
711
703
711
724
733
738
727
716
709
703
697
690
692
692
699
699
702
697
697
697
699
701
704
703
702
700
706
710
709
705
704
701
704
705
708
707
704
708
712
718
720
717
714
714
711
714
715
716
717
719
718
723
723
723
719
720
722
723
721
722
725
729
733
735
732
731
731
730
734
733
733
729
733
736
741
743
743
740
741
741
743
741
741
742
742
746
751
751
749
748
744
746
747
747
747
747
744
751
752
753
751
750
746
745
746
747
747
745
749
751
754
758
756
753
750
749
749
751
747
745
749
751
750
750
748
743
745
746
744
743
740
742
742
748
748
746
741
743
746
745
745
744
744
746
748
752
754
755
754
756
753
756
756
754
752
753
760
764
766
770
770
768
772
773
772
773
773
775
783
791
798
799
801
803
806
813
811
812
808
805
808
813
817
814
812
807
806
805
805
803
801
796
797
794
789
787
784
782
777
775
774
772
770
771
772
778
778
779
771
772
777
778
780
776
773
771
767
765
757
751
746
745
757
783
813
847
886
928
974
1014
1055
1090
1119
1135
1144
1150
1145
1135
1118
1095
1057
1008
947
884
833
803
795
801
809
819
821
813
808
803
795
787
781
779
778
780
780
777
775
772
780
783
788
783
784
781
782
783
782
783
782
787
790
791
791
791
791
791
793
792
790
788
789
794
796
798
798
799
798
797
799
799
797
797
798
806
808
804
804
805
809
811
813
813
811
809
808
813
816
820
822
822
817
821
819
822
818
818
816
820
825
827
828
830
828
829
828
828
827
825
824
823
826
832
828
834
829
827
824
828
827
823
823
821
828
827
831
829
826
824
826
829
828
828
824
822
831
832
832
826
822
826
824
826
825
819
817
820
822
823
822
821
818
817
816
816
813
813
814
814
821
824
821
821
818
823
822
823
816
818
819
822
829
831
832
827
832
837
838
838
833
833
837
836
843
843
850
851
851
862
866
869
869
872
877
878
880
880
882
883
883
882
878
875
869
867
868
871
871
867
864
860
856
854
850
845
840
839
841
841
842
840
840
842
845
846
841
839
837
838
839
842
841
837
832
830
822
817
805
804
809
826
850
889
938
978
1019
1057
1095
1132
1162
1182
1193
1198
1203
1204
1200
1188
1162
1129
1077
1010
947
893
862
847
853
869
882
887
881
872
861
854
842
836
831
834
837
843
843
841
843
841
844
846
846
843
841
841
841
845
845
844
843
841
847
845
846
842
838
839
843
848
849
851
850
850
850
850
851
851
845
842
846
849
852
856
855
857
859
855
859
855
853
852
855
862
867
866
865
868
867
870
871
871
866
864
865
867
874
873
874
871
874
876
876
875
873
871
873
876
878
877
876
878
881
881
880
875
873
867
870
869
876
876
875
876
877
879
878
875
871
871
872
877
878
880
876
875
876
877
877
876
868
868
869
872
874
876
873
870
870
870
870
867
863
859
858
864
868
867
869
864
865
867
868
865
862
861
861
864
869
871
872
870
870
873
871
870
866
872
874
881
884
885
884
885
887
889
892
893
893
894
896
904
911
916
916
919
919
920
922
921
917
915
914
915
917
915
912
911
908
907
909
909
900
896
889
885
886
885
885
888
879
878
878
876
876
870
871
867
872
878
881
880
873
875
873
872
870
864
852
841
835
836
844
855
876
908
947
992
1041
1078
1115
1151
1184
1208
1223
1232
1228
1221
1215
1202
1183
1154
1105
1045
983
935
902
890
886
892
901
903
903
898
887
876
870
865
867
866
863
863
858
860
862
863
862
863
861
865
868
874
875
872
867
865
866
866
866
867
865
864
870
875
874
875
872
867
864
867
865
865
870
870
870
873
872
873
871
866
869
873
873
873
871
874
878
884
884
880
879
877
877
878
880
882
881
881
882
884
888
887
887
885
883
885
885
888
887
889
890
892
893
892
893
890
889
888
888
890
892
892
891
887
891
893
890
887
887
881
882
884
890
892
888
889
886
888
891
888
885
887
882
886
891
890
891
889
887
886
888
885
883
878
879
881
883
879
879
879
878
879
877
874
870
871
869
872
873
876
877
874
876
878
882
879
875
876
876
876
881
881
879
880
881
885
883
884
883
879
878
884
889
895
898
895
893
893
894
895
897
896
898
905
911
918
923
925
924
923
929
929
931
927
924
922
921
926
928
927
920
916
911
912
914
912
904
901
897
897
894
890
887
886
886
885
880
879
875
876
882
887
884
882
882
883
877
880
878
872
862
858
850
845
849
856
876
911
950
989
1026
1057
1092
1126
1158
1189
1213
1226
1229
1227
1223
1206
1188
1158
1107
1047
984
934
900
888
887
900
911
916
909
900
889
882
880
876
873
870
871
875
875
877
873
872
871
873
874
876
875
880
878
879
879
873
872
873
874
877
877
877
878
878
879
880
879
874
877
876
878
878
880
880
881
883
889
890
887
885
880
882
883
889
888
891
887
891
891
899
895
892
890
890
893
897
897
898
897
897
898
897
902
900
896
895
890
895
894
901
899
904
901
900
902
904
900
898
897
897
899
901
898
902
902
904
897
895
891
895
893
894
896
895
896
898
900
899
894
890
887
887
887
889
888
885
885
887
891
888
884
880
879
881
883
883
879
879
879
883
885
884
878
876
876
878
878
877
880
881
881
886
886
888
883
882
882
882
886
887
888
887
889
891
895
895
894
889
892
894
896
894
898
900
907
913
920
921
923
925
930
934
936
931
931
933
937
939
940
938
927
922
921
924
922
920
919
920
916
916
912
905
895
891
893
891
889
890
886
887
885
890
890
887
885
879
883
883
885
885
884
882
876
878
871
866
852
843
844
861
882
910
943
980
1020
1060
1098
1131
1163
1190
1210
1224
1228
1231
1224
1209
1188
1159
1106
1037
972
920
894
888
897
908
915
917
916
909
904
893
880
875
871
872
873
876
875
876
877
881
883
882
885
882
878
880
882
885
881
881
882
885
888
889
888
883
881
882
886
890
888
885
888
888
891
891
887
883
881
878
886
888
893
895
895
893
894
899
899
898
893
892
894
897
903
901
902
900
905
905
903
901
898
901
905
905
903
904
906
905
910
908
905
904
906
906
910
907
909
907
908
910
914
914
909
906
903
904
905
906
905
903
901
907
909
908
904
903
898
899
898
903
901
901
897
898
903
904
899
896
893
891
889
893
892
892
887
889
889
887
887
884
882
882
880
882
880
880
881
884
887
886
883
881
879
887
886
886
885
888
892
895
897
893
891
888
890
890
892
891
890
892
895
901
901
900
901
899
900
904
900
907
910
915
925
933
937
938
937
937
937
937
941
940
937
937
937
938
940
937
931
928
926
926
925
922
916
914
908
906
908
906
898
889
890
887
887
885
885
887
888
891
893
889
887
888
885
885
881
877
868
863
856
850
851
865
882
908
944
983
1021
1054
1090
1123
1157
1190
1212
1224
1227
1226
1220
1208
1194
1167
1125
1070
1012
960
924
901
893
899
911
918
919
912
901
892
886
881
879
874
873
870
872
874
872
873
873
873
877
882
884
879
873
875
876
875
874
872
873
876
879
880
882
881
878
882
879
880
875
876
877
882
888
890
889
885
885
887
890
888
888
886
885
887
895
895
896
894
894
891
896
896
894
893
895
897
904
903
901
901
899
901
900
902
900
897
898
901
905
906
906
905
904
902
903
901
895
897
897
900
902
902
901
896
896
898
897
893
891
894
891
895
899
899
896
897
896
896
893
891
887
888
892
894
892
888
889
890
891
890
889
879
871
873
880
883
883
883
881
881
881
882
879
874
873
870
872
878
880
881
879
876
878
878
880
883
880
880
875
883
888
889
888
888
885
884
886
886
884
883
882
885
888
895
900
901
896
893
895
899
901
905
904
908
919
923
933
930
931
933
933
931
931
923
929
932
929
931
933
925
920
917
917
915
918
910
903
898
895
897
895
896
886
883
882
882
882
876
874
876
882
882
881
882
883
878
875
877
877
875
865
857
847
842
841
841
848
860
884
917
958
1001
1038
1079
1114
1149
1182
1208
1221
1225
1223
1219
1211
1205
1189
1165
1124
1068
1012
958
921
898
889
893
904
910
908
906
893
885
880
875
871
866
862
860
863
865
871
868
866
866
867
868
869
871
872
867
865
866
869
869
871
871
875
871
876
873
874
871
868
867
870
876
878
880
877
874
874
876
877
877
875
871
872
879
883
884
885
878
876
881
883
885
882
878
880
880
885
893
893
891
889
887
888
891
893
890
890
893
897
899
901
899
895
896
897
898
896
895
893
894
899
899
901
897
892
892
894
890
892
889
886
885
890
891
889
888
889
887
890
889
891
885
883
884
885
888
890
886
880
884
881
881
881
878
876
874
880
883
885
880
877
871
869
867
870
867
867
868
870
873
877
874
872
866
869
870
872
873
869
870
873
876
878
878
875
872
876
875
875
874
873
875
881
882
883
880
876
879
880
881
887
883
880
888
890
895
897
900
901
906
911
915
922
920
919
922
923
930
927
928
923
920
919
918
917
915
909
908
908
912
912
904
894
890
887
887
886
882
876
877
879
880
881
877
875
874
876
871
874
870
868
869
873
870
871
860
849
840
833
837
850
873
911
956
1006
1051
1094
1131
1166
1193
1212
1218
1221
1218
1211
1198
1180
1144
1090
1029
972
928
899
887
885
894
906
913
914
908
893
881
874
866
862
861
861
857
855
861
866
868
869
865
866
868
865
866
863
859
858
861
866
869
869
869
864
867
869
869
864
861
861
862
866
869
872
870
869
871
871
871
869
865
867
873
872
876
874
875
875
880
877
877
874
872
876
880
885
885
885
880
883
883
885
885
886
882
885
889
895
893
893
894
893
895
892
892
891
886
885
891
895
895
891
890
888
891
891
891
887
884
886
889
894
891
891
886
888
888
885
885
882
879
878
881
884
890
891
888
888
888
883
883
879
876
875
879
880
882
880
879
879
881
876
871
867
866
869
874
871
872
868
868
867
870
869
870
867
868
873
877
878
877
874
871
869
872
875
875
871
869
870
874
880
881
886
884
884
883
885
886
882
882
883
887
893
897
906
905
907
913
917
921
921
922
921
925
924
929
931
929
924
919
917
915
914
911
909
909
916
910
906
900
891
888
886
881
880
877
874
877
876
880
881
876
871
871
870
876
874
873
869
869
871
872
869
859
849
836
827
827
832
849
866
896
934
981
1025
1066
1098
1126
1159
1184
1203
1211
1213
1209
1205
1198
1187
1161
1118
1061
997
944
910
891
888
891
899
905
913
914
906
890
876
864
861
858
855
856
856
858
860
864
862
860
857
856
860
865
863
864
864
865
867
873
871
868
866
864
865
866
864
863
862
866
871
873
872
866
863
860
863
866
867
867
869
867
870
872
876
872
867
866
866
871
871
873
874
874
875
880
880
877
873
873
874
873
878
877
876
876
879
884
881
883
875
875
871
877
878
883
883
884
886
886
885
880
879
878
878
879
881
880
875
876
877
882
881
882
875
872
872
871
876
873
872
873
872
875
876
877
870
868
866
865
864
866
868
870
866
865
869
865
861
862
858
855
857
863
862
861
860
857
855
860
859
854
850
852
854
858
859
862
857
856
859
861
860
861
858
857
859
861
865
866
866
866
868
867
865
860
857
859
863
867
864
865
867
871
873
875
874
872
877
882
891
894
896
897
898
906
908
909
904
903
900
901
902
902
904
896
894
895
898
895
889
882
878
877
869
866
866
861
863
864
863
859
856
849
848
850
854
855
854
856
856
856
858
853
847
836
830
820
812
810
820
841
873
917
962
1005
1043
1082
1117
1149
1170
1184
1192
1194
1190
1182
1163
1138
1098
1043
982
926
883
857
855
864
873
880
879
871
860
851
843
838
835
834
832
836
840
841
838
834
834
834
837
838
834
834
836
838
841
842
838
834
833
835
838
841
839
839
837
841
842
847
845
845
840
839
842
842
843
841
845
849
851
850
850
847
846
849
852
848
849
848
853
855
858
855
855
854
854
855
854
853
847
848
854
858
858
860
857
855
857
855
855
855
852
855
858
861
861
858
857
853
854
855
850
849
852
850
854
854
855
852
851
851
851
853
851
848
844
846
845
850
852
850
845
845
842
845
843
840
840
839
841
843
841
842
839
836
838
836
831
830
826
824
831
836
835
830
828
824
827
827
824
825
824
825
828
835
832
834
835
834
831
836
832
832
831
831
835
841
839
839
840
835
835
837
836
837
837
838
839
844
851
852
850
849
850
854
860
861
863
866
872
880
883
889
884
881
880
882
882
879
876
873
874
874
877
875
872
869
866
861
852
843
837
835
837
840
841
838
835
832
829
829
829
827
824
825
828
830
837
833
832
827
822
818
816
805
796
787
784
791
800
822
851
881
912
951
987
1026
1057
1088
1119
1144
1163
1176
1178
1174
1163
1145
1126
1110
1076
1033
975
915
873
851
843
845
856
860
858
855
849
841
831
823
818
815
817
818
814
812
811
811
815
816
814
817
817
820
820
822
819
816
812
814
815
817
819
815
817
816
820
819
820
819
813
816
821
818
820
818
818
821
824
823
826
823
824
822
824
825
828
829
825
826
831
834
835
832
828
828
828
831
837
837
835
833
833
837
837
833
829
828
833
837
838
836
838
839
842
841
837
836
834
833
833
836
837
835
833
836
839
840
834
829
826
827
828
830
836
835
835
832
833
834
833
830
827
826
826
833
832
830
828
828
828
832
828
824
819
818
818
817
818
819
817
818
818
815
817
814
811
809
811
815
816
818
818
816
818
820
818
816
814
815
815
819
822
821
820
818
824
823
821
819
816
820
824
824
823
824
829
831
836
837
836
832
829
831
833
836
842
843
846
856
859
862
862
863
863
865
864
865
864
863
864
869
867
863
858
