874
874
874
874
874
874
874
872
870
869
869
867
868
872
870
870
870
868
868
866
866
864
865
865
867
867
871
868
865
866
864
860
862
861
863
865
864
866
867
869
870
865
863
866
864
865
867
865
868
873
874
875
876
878
881
882
882
880
881
880
886
887
888
889
888
892
890
890
889
886
882
882
880
876
877
874
874
875
874
872
868
864
860
858
859
858
858
856
855
855
851
851
852
850
851
850
854
852
853
855
855
855
852
853
851
851
852
852
852
853
855
855
858
857
857
858
864
872
886
904
929
955
980
999
1015
1015
995
966
935
896
855
818
794
786
789
793
802
807
812
816
819
819
824
829
832
833
835
836
835
832
832
831
828
828
830
830
830
833
834
833
835
833
831
831
830
829
829
828
831
831
829
828
829
829
828
826
825
824
821
822
822
822
826
826
826
822
820
818
817
815
816
816
816
817
818
819
816
816
814
812
811
808
810
810
810
813
812
812
812
812
810
810
809
811
811
811
813
813
815
816
818
821
819
822
820
823
824
831
835
841
845
849
853
856
859
863
864
867
869
873
876
880
882
884
886
885
883
882
880
883
881
882
882
881
881
882
880
881
878
876
872
875
874
871
874
875
875
875
873
871
869
870
866
866
865
867
867
866
866
866
870
866
865
864
865
864
863
865
865
866
868
866
867
865
866
863
859
860
862
863
865
867
868
868
867
866
866
863
861
862
864
866
868
872
874
875
877
880
882
882
881
883
882
882
883
885
889
890
892
893
893
890
887
882
880
874
875
875
876
875
875
873
868
864
858
855
856
854
854
854
856
856
853
854
850
851
849
849
851
849
852
852
853
853
852
853
852
852
850
851
855
853
857
864
872
883
899
918
941
965
986
1003
1013
1005
987
962
938
909
879
846
814
792
782
785
792
799
805
807
813
817
820
823
826
828
829
829
831
829
831
833
832
833
833
831
828
828
827
827
826
828
827
827
828
832
829
828
827
825
824
822
823
822
824
823
823
824
823
822
819
818
817
816
815
813
815
818
818
818
816
815
813
810
806
807
805
805
807
807
809
809
809
808
804
804
805
803
803
801
804
804
806
806
809
809
808
807
808
808
808
811
812
816
815
820
822
827
827
829
831
834
839
841
849
852
858
863
867
868
871
871
870
871
874
875
877
877
878
878
878
876
873
871
869
868
870
869
869
870
870
869
866
866
863
863
862
861
861
861
862
864
865
863
864
861
859
857
858
855
855
857
857
857
858
856
859
860
859
859
856
855
853
853
857
858
856
859
858
858
857
856
856
856
855
853
856
857
859
860
860
858
861
860
859
861
862
866
867
872
875
877
878
878
874
875
874
873
876
877
880
880
884
884
880
873
870
866
862
859
859
861
864
862
861
857
855
851
850
846
845
843
843
844
843
844
843
845
845
843
840
841
841
838
838
842
838
845
842
846
848
844
843
845
845
845
845
846
850
858
871
885
903
926
951
976
995
1003
994
971
942
911
873
835
800
775
770
773
779
785
794
797
801
806
812
815
819
820
824
823
823
822
821
820
821
821
823
825
823
823
821
819
816
816
816
816
816
817
817
821
820
819
815
813
812
810
811
813
814
816
816
815
815
814
810
809
808
806
805
805
807
808
807
811
808
807
802
802
799
797
798
796
796
798
797
800
800
799
799
797
796
796
797
798
800
801
802
806
803
805
805
808
811
811
817
821
827
831
836
840
843
848
849
852
854
856
859
862
865
867
871
869
870
868
871
868
868
866
864
867
867
865
866
867
865
865
862
861
856
855
856
855
855
857
856
858
857
855
854
853
849
849
849
852
849
854
852
852
850
849
847
846
845
843
845
846
848
851
850
851
851
851
849
848
845
845
847
846
848
850
849
850
850
853
853
853
852
854
855
858
861
864
868
870
869
871
870
868
866
866
868
870
873
874
875
877
871
866
861
858
856
855
858
856
856
855
850
847
845
843
840
839
834
832
835
833
835
837
841
841
840
839
838
837
833
834
835
837
837
841
843
844
844
842
843
844
849
856
872
890
913
941
967
988
1001
1000
984
960
929
901
871
838
806
786
779
780
783
789
791
796
795
799
801
807
811
817
821
821
822
822
821
819
816
816
814
815
820
822
821
824
823
822
820
819
818
816
816
818
818
818
818
818
817
814
815
811
811
810
811
811
812
810
811
815
813
812
809
807
806
804
805
801
803
805
805
805
804
804
802
802
800
798
797
797
795
796
797
798
799
798
795
795
794
795
794
796
800
801
802
806
807
806
808
808
808
810
809
813
818
825
827
839
843
847
849
850
851
857
860
860
868
870
871
869
869
869
866
865
866
866
866
865
864
866
864
865
864
862
861
860
859
858
856
853
855
855
856
858
857
856
857
856
855
852
852
850
850
852
852
852
851
849
849
847
848
848
849
850
850
851
851
851
848
847
846
845
846
846
843
846
845
849
851
851
851
850
850
847
847
846
844
850
853
857
861
861
863
862
862
861
860
858
860
861
864
867
870
871
871
868
866
861
855
849
849
851
855
855
854
852
846
842
837
834
830
830
829
829
830
832
832
830
832
829
828
829
829
829
830
830
827
830
829
832
831
831
829
827
827
829
830
831
833
841
852
864
883
904
931
954
978
987
983
964
936
907
871
827
793
774
768
773
775
778
779
783
787
793
799
805
807
809
807
805
806
803
802
803
805
804
807
806
807
805
803
803
804
799
798
800
800
801
802
799
799
799
797
795
796
793
794
797
800
801
801
799
801
797
792
791
790
791
789
789
791
791
792
794
794
790
788
785
785
780
781
780
781
781
783
780
779
778
778
777
779
779
779
782
784
782
785
786
787
784
790
789
788
791
795
799
802
810
815
817
820
824
825
828
830
832
837
841
842
846
847
850
850
849
847
846
844
842
841
840
843
847
848
846
847
844
843
841
838
835
837
837
839
841
841
838
838
836
834
832
833
832
834
834
835
836
837
834
832
834
831
831
832
830
832
834
833
835
836
835
835
832
833
833
833
834
833
838
840
840
842
843
842
844
845
847
848
847
851
851
851
851
853
854
856
859
859
862
862
859
857
858
858
857
858
857
855
852
847
847
845
842
842
840
837
838
840
837
835
833
833
828
827
827
828
831
830
833
835
834
832
831
831
829
830
830
831
834
835
835
841
841
845
856
869
884
905
929
955
980
998
1005
1001
981
952
924
893
861
827
796
776
773
782
790
794
792
788
788
790
796
802
807
812
815
817
816
818
816
816
815
813
812
813
812
810
811
811
812
816
815
815
812
811
812
809
806
807
806
807
808
812
810
809
808
804
804
803
803
802
804
802
803
806
803
804
802
800
799
797
795
795
797
796
798
799
797
795
794
792
791
786
789
789
791
792
793
797
796
795
792
796
795
795
794
799
801
803
807
809
813
815
816
817
822
825
826
830
834
836
845
848
853
853
856
860
858
859
860
863
865
866
867
867
868
866
863
863
861
860
855
857
860
862
861
863
863
862
861
858
855
854
852
854
853
855
857
857
858
857
855
855
853
852
852
852
853
854
854
855
856
853
853
850
851
851
851
851
851
854
855
857
855
853
855
854
854
852
853
851
853
855
857
855
857
855
856
857
858
859
861
861
866
867
872
871
871
869
869
870
869
868
871
872
873
876
875
873
868
865
859
858
856
856
856
855
851
850
849
849
846
845
843
838
838
835
836
833
834
837
835
839
840
838
836
834
832
832
831
835
835
834
838
839
842
841
841
841
844
852
863
878
897
924
951
976
998
1012
1010
991
961
929
893
855
822
799
789
789
796
804
810
815
817
817
815
813
811
813
813
817
818
816
817
815
815
810
812
811
809
813
815
812
811
814
813
810
806
807
807
808
807
810
811
813
810
808
807
806
804
802
803
801
801
803
804
803
802
800
798
797
795
792
793
794
796
796
795
796
795
794
791
787
786
784
784
783
783
786
787
789
788
787
786
786
787
786
786
787
790
791
794
797
798
800
802
803
804
805
808
812
818
822
827
832
835
840
844
847
848
849
851
854
857
859
865
864
865
864
863
864
862
856
859
857
858
858
859
859
857
857
857
856
853
851
851
851
851
853
853
854
853
850
850
850
849
845
845
843
843
843
845
846
847
847
846
843
841
840
841
844
845
846
847
847
848
846
847
845
846
845
846
849
851
853
855
856
858
859
856
856
854
855
857
861
863
866
869
870
871
868
865
861
857
855
854
851
851
850
849
845
843
843
842
837
833
830
829
828
830
830
832
831
831
832
831
830
827
826
826
824
826
825
827
831
833
831
832
829
828
828
828
834
841
854
869
890
916
946
972
992
1000
994
973
950
923
901
873
848
819
797
785
782
787
791
799
804
808
811
810
809
808
804
805
806
806
806
806
805
805
807
806
804
805
803
804
805
803
800
801
801
802
802
802
801
803
803
802
801
800
797
796
795
796
797
798
796
798
799
799
795
792
791
790
789
791
791
790
793
791
789
788
784
782
781
777
777
778
778
779
783
779
778
776
776
774
775
773
773
774
775
776
776
778
778
773
777
777
777
777
779
783
786
788
792
795
795
798
797
799
803
806
810
816
822
828
831
833
836
838
838
838
838
838
841
842
844
843
846
846
846
843
840
839
839
835
836
836
836
834
838
840
835
837
832
830
828
827
828
830
833
833
835
831
830
828
827
825
823
821
827
827
828
828
830
828
829
828
826
827
825
825
824
824
824
824
826
828
829
828
826
827
826
827
826
829
830
831
836
838
841
839
842
843
841
839
840
841
843
841
842
844
843
843
847
848
849
848
846
843
837
835
834
835
834
835
831
828
824
819
815
814
814
815
815
817
814
815
814
812
810
810
811
811
814
815
817
818
817
816
815
813
813
814
816
816
819
824
832
841
852
871
891
911
937
958
973
976
965
945
922
899
870
842
810
785
769
767
770
778
780
784
790
791
791
791
790
792
791
792
791
792
793
792
793
795
794
791
790
790
790
787
788
787
787
787
787
788
789
789
787
786
783
782
783
784
783
784
784
785
784
784
782
779
778
779
776
778
778
779
780
782
778
776
777
771
771
771
771
772
773
772
774
774
772
772
771
771
768
770
768
771
770
770
771
774
773
776
777
775
777
777
777
781
784
788
793
797
798
803
805
808
811
816
818
824
829
834
838
841
843
841
842
842
843
839
840
842
843
844
845
843
843
841
839
839
837
835
836
834
834
836
838
838
838
835
834
834
832
830
830
831
833
833
831
832
831
833
831
830
829
827
827
828
829
830
831
833
831
831
830
826
826
827
826
826
828
829
830
831
832
832
830
832
834
832
839
843
845
849
851
854
854
849
848
847
844
846
848
851
856
857
859
858
852
849
843
841
840
838
839
838
838
838
837
836
831
829
825
824
823
821
821
821
822
823
826
828
827
828
828
825
827
826
827
827
827
827
829
829
830
830
830
828
833
840
854
874
899
928
956
980
985
981
961
932
903
869
834
804
780
774
772
778
786
795
799
802
800
797
801
804
807
811
814
814
814
813
812
809
809
806
807
808
812
812
814
813
814
813
813
810
807
808
807
810
810
813
813
814
812
812
811
807
806
806
807
807
808
806
808
810
806
805
803
801
799
799
798
800
799
801
801
801
800
800
798
798
796
794
794
795
797
796
796
798
800
798
799
798
798
797
796
798
801
801
808
809
808
810
810
815
815
817
820
825
830
834
840
845
849
851
856
853
855
857
860
862
866
868
870
870
869
866
866
863
862
863
862
862
864
863
866
867
863
861
859
858
858
856
854
856
855
855
855
857
855
855
854
852
850
850
848
850
852
851
853
853
853
851
850
848
849
847
847
850
850
851
854
857
855
855
856
857
856
858
860
860
862
864
867
867
865
866
867
867
869
871
875
876
877
874
874
871
869
867
866
862
862
860
856
854
853
851
849
848
848
844
844
841
838
839
837
838
839
839
841
841
840
842
841
838
837
835
838
838
841
845
845
850
852
854
867
878
892
913
937
959
981
994
997
991
971
946
920
898
869
838
809
791
787
793
798
803
801
799
799
801
804
810
814
819
824
827
826
826
825
824
822
819
817
818
818
816
818
820
821
821
823
822
819
818
817
819
820
819
818
817
819
821
817
817
815
814
811
810
810
811
811
812
814
815
815
813
812
813
809
807
809
812
812
811
812
814
809
810
808
807
805
805
802
801
802
802
804
809
809
808
811
808
809
810
810
811
814
815
818
821
822
818
819
821
825
827
828
834
838
843
848
856
857
858
858
858
859
861
864
868
870
873
876
878
879
878
876
873
872
869
869
868
869
869
866
867
867
865
862
863
862
862
861
859
859
859
860
860
858
860
861
862
860
858
857
856
856
857
860
860
858
858
857
855
855
854
854
853
854
856
857
859
858
856
854
851
847
851
853
853
854
856
856
859
861
863
863
865
863
863
862
859
859
860
860
867
869
871
875
873
874
870
868
868
867
868
865
865
863
860
858
856
852
848
845
843
841
843
842
841
841
838
837
839
835
835
836
835
839
840
840
843
842
841
840
841
840
841
842
843
845
846
848
855
861
871
888
909
934
962
988
1007
1015
1011
992
967
937
907
875
839
803
777
765
770
781
792
793
794
790
794
799
804
810
816
819
819
821
821
822
823
821
821
823
821
819
819
818
817
820
822
821
822
821
823
821
819
818
818
819
817
818
819
817
819
819
818
814
815
812
810
812
811
813
812
815
819
817
817
815
814
811
809
806
805
805
807
807
811
809
808
806
806
805
805
804
806
804
810
810
810
811
811
810
809
809
810
812
814
817
821
822
827
827
831
834
834
838
844
845
851
856
861
867
872
875
873
875
877
878
880
881
882
883
885
883
884
881
883
882
881
879
880
878
876
879
879
878
882
880
880
880
878
877
875
873
874
876
876
876
876
874
877
878
874
871
872
872
872
874
874
875
877
876
878
875
876
874
875
874
873
874
877
879
880
883
880
879
877
877
876
877
881
884
888
888
890
890
891
888
886
888
887
889
893
897
901
903
905
904
903
900
897
893
889
889
885
887
888
887
887
884
880
876
873
872
869
865
866
867
869
868
870
869
869
868
866
866
865
863
864
865
869
869
872
870
870
870
869
869
866
868
869
875
889
903
923
950
979
1009
1033
1043
1034
1010
980
945
904
864
831
812
808
812
815
819
822
824
830
836
841
844
849
852
850
850
851
852
848
849
847
847
849
852
856
854
853
853
851
847
849
847
849
850
851
852
851
850
850
850
848
847
846
847
847
845
846
846
847
848
847
846
844
843
842
840
840
840
838
841
843
843
842
843
839
836
836
834
834
835
836
836
834
836
832
832
831
829
831
829
830
831
835
837
837
839
839
839
837
837
835
836
839
842
851
854
858
861
865
869
871
876
878
883
886
892
896
902
904
906
907
909
908
910
908
907
908
909
911
912
913
912
909
907
906
906
904
900
903
904
903
905
905
905
904
904
903
901
899
900
901
902
902
900
904
903
900
899
898
894
895
892
895
895
898
898
902
900
897
897
894
895
892
894
897
896
896
898
896
899
897
897
898
896
900
898
901
904
908
912
914
916
918
916
914
914
913
913
914
916
919
920
924
925
924
922
917
913
908
906
904
905
905
905
907
901
900
899
895
891
889
884
884
885
885
886
884
885
887
885
883
882
880
880
882
883
884
886
886
887
887
885
886
889
894
904
918
939
964
989
1019
1042
1058
1063
1052
1030
1000
970
941
908
878
853
843
841
842
851
856
862
866
867
866
866
865
863
865
865
866
866
866
865
862
860
856
856
860
864
864
865
863
862
860
860
858
856
856
857
859
859
860
859
857
856
854
853
851
847
851
849
849
849
848
847
845
843
843
840
840
840
838
839
838
838
840
839
840
836
833
834
831
832
833
834
832
834
834
835
833
833
831
832
831
831
834
836
839
840
842
846
847
848
850
851
852
857
862
865
870
878
885
891
895
899
902
900
902
903
905
907
911
910
914
913
912
911
910
907
906
905
904
905
906
906
908
908
906
900
902
902
899
900
900
901
900
899
899
900
901
901
899
898
896
896
893
894
896
896
896
898
897
892
892
894
893
894
894
894
897
896
896
898
900
900
897
897
893
893
895
898
901
904
907
911
910
909
913
914
912
914
913
915
915
914
917
919
922
921
918
916
914
911
906
905
901
900
902
901
897
897
895
892
889
887
886
886
885
885
887
888
884
882
880
882
879
879
880
882
884
883
886
886
887
886
882
885
882
882
884
888
893
903
914
929
944
966
991
1015
1035
1048
1053
1042
1022
995
970
942
910
878
850
838
836
841
849
860
869
870
871
866
861
858
858
857
856
856
860
862
861
860
861
861
861
860
859
858
857
854
855
854
856
857
858
857
855
854
854
852
850
849
848
849
850
850
852
852
849
848
848
846
844
844
844
844
845
845
844
845
843
842
840
838
837
837
837
836
836
835
835
834
832
830
828
828
827
826
826
827
831
830
830
833
833
833
833
833
834
834
836
838
841
845
848
850
855
859
862
865
866
869
875
880
885
892
895
898
902
903
903
903
903
902
903
905
906
907
908
908
908
906
904
905
900
900
900
900
901
901
902
902
902
903
899
898
897
895
894
895
894
895
895
898
896
893
894
893
891
891
891
888
888
890
892
893
890
893
892
888
887
886
887
886
888
888
889
891
891
890
888
889
888
891
891
896
899
903
905
908
907
908
910
907
906
904
903
906
909
912
913
916
915
914
909
906
900
896
893
893
895
894
894
893
893
890
883
880
878
875
874
873
874
873
877
875
874
873
873
871
873
872
871
872
875
875
877
877
877
879
876
877
876
878
891
902
920
944
971
995
1020
1035
1036
1022
999
972
947
919
889
862
842
836
834
839
844
849
853
854
854
849
850
850
851
853
854
852
851
852
851
851
848
850
852
852
851
855
855
853
851
849
847
843
845
846
848
850
848
848
848
846
841
841
838
839
838
841
842
842
841
843
840
841
836
832
835
832
832
831
831
833
833
832
833
831
827
826
823
825
824
824
824
824
827
825
826
826
822
822
821
821
823
825
825
828
829
833
834
832
830
833
832
833
836
840
844
849
851
857
862
867
871
871
875
879
880
883
884
889
892
895
897
899
898
895
898
894
898
897
897
899
899
901
897
898
894
892
889
890
887
888
887
887
889
890
890
890
889
887
884
883
883
884
885
886
885
887
886
887
883
881
880
880
881
880
880
882
882
884
882
881
882
880
879
878
877
878
880
882
884
885
884
884
888
887
889
890
891
895
898
900
901
904
899
899
898
897
895
897
897
900
904
904
903
901
895
888
882
884
883
882
881
879
878
878
872
874
869
871
869
865
865
861
863
863
864
865
866
867
865
867
863
863
865
866
864
865
866
867
866
870
869
874
880
889
903
924
946
973
997
1019
1027
1024
1005
979
952
929
906
878
852
831
819
817
822
830
835
836
836
837
836
835
836
839
842
843
845
847
846
843
844
841
838
841
840
840
839
842
842
844
844
842
839
839
836
836
839
836
836
834
837
838
837
837
835
833
832
832
830
829
831
832
832
834
830
831
830
828
826
826
824
823
824
825
824
825
825
823
821
818
817
816
815
817
819
821
821
823
823
824
823
823
822
822
822
826
828
831
834
837
840
841
843
844
845
850
852
858
863
869
873
880
885
884
887
886
889
889
893
893
895
897
897
899
896
895
894
892
890
890
889
887
885
888
887
887
884
886
883
882
881
880
877
878
879
880
880
881
880
878
879
878
877
875
875
874
873
874
875
875
876
875
875
871
869
871
870
872
876
876
877
877
875
873
873
874
874
873
873
873
876
879
882
887
887
889
890
893
893
891
892
891
892
892
893
896
896
895
898
899
898
897
894
889
887
886
885
885
886
881
882
878
877
873
869
866
865
867
866
867
865
863
862
860
860
860
860
861
859
863
865
866
865
864
862
862
861
862
862
860
864
865
868
874
882
891
906
927
951
978
999
1012
1013
1002
980
952
925
896
864
831
808
801
802
806
814
819
826
829
830
831
833
834
836
838
838
838
841
841
842
844
844
841
842
841
836
836
835
836
839
840
840
841
841
839
838
836
837
837
835
833
833
835
835
838
836
835
835
833
831
830
828
827
830
831
830
832
829
830
828
826
826
824
819
820
821
824
821
824
824
823
819
818
816
816
815
816
818
821
821
824
823
824
822
821
820
820
819
821
827
831
834
838
842
840
844
848
850
853
855
863
867
871
874
879
881
883
885
884
888
888
888
889
891
892
893
894
895
891
888
887
886
887
884
884
883
885
886
886
883
880
880
880
878
875
874
874
876
876
875
877
877
876
875
873
871
870
867
867
867
870
872
873
873
872
867
869
865
865
865
863
869
869
870
872
872
871
872
869
867
866
866
866
867
869
871
871
872
873
876
875
876
879
880
883
885
886
887
888
887
887
886
884
885
886
887
889
891
889
886
882
879
877
876
873
872
871
871
870
867
866
864
863
863
859
857
857
853
853
853
853
854
855
855
857
857
856
856
853
854
851
853
853
854
856
857
859
859
860
865
869
879
892
908
930
958
977
997
1008
1004
989
968
943
918
893
862
833
809
799
798
802
806
808
810
809
813
813
818
826
829
833
832
833
834
833
831
830
829
827
824
828
828
826
830
833
832
831
832
828
828
827
826
826
827
828
828
830
829
830
827
826
826
824
822
821
821
822
822
823
823
819
820
817
817
816
816
815
815
813
817
820
819
819
818
817
814
813
811
812
812
814
814
813
815
815
816
816
814
816
814
814
817
819
822
826
828
829
830
833
832
835
836
840
847
851
855
861
863
866
869
871
876
876
881
883
885
886
885
889
889
888
887
886
883
880
881
879
879
880
876
879
877
875
872
873
871
869
866
866
868
871
870
871
871
870
868
867
865
864
862
861
861
865
865
864
865
863
862
864
864
862
861
861
862
865
863
868
868
869
866
865
863
860
861
860
862
865
870
871
872
876
877
875
874
875
873
874
875
879
881
887
888
887
886
885
881
878
875
871
868
868
868
867
866
866
862
857
853
852
851
848
847
848
852
852
853
851
849
846
844
844
845
847
844
845
847
851
852
852
852
850
850
850
851
853
856
862
870
882
897
916
937
960
978
994
1005
1004
993
972
951
925
899
868
831
808
795
795
799
802
805
807
809
816
821
827
829
829
829
824
820
820
820
825
827
830
828
831
830
823
822
822
823
823
825
826
823
825
825
824
824
822
819
820
819
821
822
821
823
822
822
820
817
817
816
816
814
815
816
817
816
819
815
814
815
812
813
812
808
810
810
809
809
812
812
812
810
809
808
808
808
811
810
812
814
817
816
814
817
819
819
820
823
827
831
835
838
840
845
845
847
852
855
857
856
861
867
872
875
876
880
880
881
878
878
876
878
876
875
875
875
874
876
876
873
871
869
864
863
863
864
866
866
866
866
867
864
864
863
860
860
861
860
860
862
863
863
862
860
859
860
859
857
856
857
855
859
861
861
859
856
856
855
856
855
855
857
856
858
859
860
859
859
858
858
859
861
861
863
867
869
872
872
872
871
870
868
868
869
869
869
877
878
880
883
881
875
867
867
864
862
861
863
865
864
864
863
861
854
854
850
847
844
844
844
847
846
846
847
845
846
845
845
841
840
840
843
843
845
846
848
847
848
847
849
849
854
863
878
896
922
948
974
995
1006
1008
995
971
941
915
886
853
820
796
787
790
797
801
800
796
797
798
804
813
817
825
827
829
830
827
823
822
823
824
824
825
827
826
826
825
824
821
820
820
817
818
819
821
819
821
823
822
821
820
819
817
814
815
814
813
815
816
817
816
813
811
807
809
808
808
809
810
811
812
812
811
809
809
805
802
801
804
802
805
808
808
810
810
808
805
804
807
808
808
809
811
814
816
820
823
825
826
829
832
833
835
841
844
852
856
863
862
866
864
866
866
865
870
873
875
878
879
879
877
877
875
873
870
869
870
870
871
872
873
872
871
870
870
865
862
862
863
863
865
864
867
868
869
866
865
862
862
862
861
860
864
864
864
865
864
865
863
859
857
857
860
862
864
865
867
868
867
865
864
864
863
862
866
869
869
874
873
875
875
877
874
872
870
874
875
877
882
887
890
890
887
888
883
879
876
873
874
874
874
871
872
869
865
862
859
855
853
850
850
851
851
851
853
855
852
854
852
848
847
852
850
848
849
852
853
853
855
856
856
853
854
854
859
870
884
899
917
943
971
996
1011
1018
1014
1000
976
953
930
905
882
853
827
808
802
804
810
811
808
806
809
813
817
822
825
829
831
831
829
829
830
831
831
834
834
834
834
832
831
830
827
828
829
831
828
832
831
830
830
828
824
826
826
823
824
825
826
827
826
827
826
824
822
825
821
819
819
819
818
818
820
820
819
816
815
816
809
807
807
806
808
809
808
809
810
809
807
806
804
800
799
803
803
806
807
808
808
808
808
807
807
808
810
811
814
816
821
821
824
827
829
832
835
838
841
848
854
861
867
873
876
878
880
878
879
881
879
879
882
885
887
888
887
886
884
881
878
877
878
880
881
878
882
881
879
880
879
877
876
875
875
875
877
877
877
878
876
875
874
873
873
871
870
870
874
872
872
873
874
872
872
870
866
865
867
870
871
871
872
872
872
873
871
870
870
868
871
871
874
878
878
882
882
887
887
887
886
887
888
889
888
890
892
895
894
896
897
896
897
892
888
887
883
883
879
881
881
879
879
875
873
869
866
864
865
864
861
863
861
859
858
858
858
857
857
855
857
859
861
863
862
861
863
860
859
859
859
861
863
868
872
882
891
904
922
943
969
991
1014
1028
1028
1014
985
954
915
875
838
815
805
807
814
824
835
838
844
843
841
839
835
836
834
836
837
836
839
838
838
839
838
839
834
833
833
832
832
833
833
834
835
836
836
836
834
832
832
831
829
828
830
830
831
831
830
828
822
820
824
822
821
823
823
823
825
822
822
821
819
817
816
815
813
813
812
815
815
814
812
810
809
807
806
807
806
807
806
808
811
814
814
812
815
814
814
817
816
819
822
827
830
835
839
841
845
846
848
853
858
861
867
873
875
882
881
882
884
885
884
884
883
884
885
885
885
887
885
883
882
880
878
880
879
878
878
880
880
881
880
878
875
876
874
875
873
872
872
875
876
877
876
872
872
871
870
869
869
867
868
870
871
872
871
870
870
868
867
864
864
865
868
868
870
868
870
871
870
869
871
871
873
876
879
882
884
888
888
889
887
882
884
883
883
885
889
893
894
896
894
890
888
882
878
875
872
872
874
876
876
876
870
870
862
861
859
857
855
853
853
856
857
858
856
856
855
855
854
854
852
851
853
856
857
860
859
859
858
855
857
857
860
868
882
896
915
940
965
991
1011
1022
1022
1007
982
954
928
901
868
841
817
804
802
807
811
816
822
828
831
831
832
834
833
834
834
834
833
832
833
832
830
832
832
832
833
832
832
829
827
826
827
826
826
827
829
833
829
830
827
827
824
823
822
821
822
823
822
822
819
819
819
816
816
814
813
812
812
811
811
814
813
810
809
808
806
803
803
801
803
804
803
804
805
802
801
799
798
800
798
799
802
803
806
805
808
809
808
808
808
810
811
812
816
820
827
833
835
841
844
847
849
853
857
862
867
871
871
876
878
880
879
874
877
876
876
877
877
877
877
879
876
873
875
873
870
871
869
869
871
871
871
872
873
870
868
867
866
865
865
865
866
866
868
870
869
869
867
864
863
861
860
859
860
863
866
866
867
867
866
865
864
864
864
865
865
868
869
871
873
872
872
874
875
877
879
882
883
885
887
886
886
885
885
889
888
888
887
883
881
879
875
875
876
874
876
872
868
864
860
858
856
855
855
855
854
853
852
851
851
850
849
849
851
850
853
855
856
855
855
853
853
852
850
854
854
858
862
870
883
897
917
939
966
987
1005
1016
1012
996
972
947
919
889
856
824
802
792
792
799
807
818
825
830
830
832
833
831
832
830
831
829
830
832
833
832
834
833
830
826
825
825
825
827
827
829
830
831
829
829
826
825
826
824
819
820
825
825
826
826
826
825
822
820
820
816
815
816
816
816
816
818
818
817
814
812
809
811
809
808
809
810
810
810
811
809
806
805
805
804
804
804
807
807
810
811
814
814
813
813
814
815
816
817
823
825
831
837
839
843
846
845
852
854
857
862
864
868
873
876
879
878
880
879
878
878
879
879
880
882
883
881
879
879
877
876
872
874
873
873
873
873
874
875
875
875
871
870
868
869
870
869
870
870
872
872
872
871
869
867
868
864
865
865
865
866
867
866
868
868
866
866
863
861
862
865
863
864
863
867
868
868
868
870
869
868
869
872
874
877
878
884
884
887
886
880
881
882
881
883
883
886
889
893
894
894
893
890
886
880
877
873
873
873
875
877
874
873
871
867
861
858
855
856
854
855
855
854
855
854
855
853
853
852
848
850
851
851
853
854
854
852
852
850
851
853
852
854
854
858
867
874
887
901
923
946
972
992
1005
1009
995
980
953
929
905
879
846
814
795
788
790
794
801
807
813
822
823
825
828
830
830
834
834
832
833
835
835
835
837
834
835
831
833
828
829
829
830
831
833
834
835
834
833
833
832
827
824
825
827
827
832
832
831
830
829
828
825
823
820
822
821
823
823
824
823
823
820
817
817
816
813
814
813
814
813
815
811
812
811
807
805
806
805
806
806
809
808
812
810
813
815
815
815
815
818
818
820
826
829
831
836
838
840
843
847
850
854
858
864
870
873
874
878
880
880
881
880
879
877
878
879
880
883
883
884
881
881
878
877
875
874
874
874
873
873
872
873
872
873
870
869
866
865
867
869
870
871
872
870
868
867
868
867
864
862
866
864
863
867
866
867
867
866
865
865
864
865
865
865
867
866
866
867
868
871
867
867
865
864
866
872
875
880
885
886
886
888
886
885
882
882
882
881
884
888
892
894
893
890
885
880
875
873
869
870
873
873
873
872
866
863
860
856
852
852
853
853
854
856
858
856
857
856
856
854
854
853
852
849
856
856
858
856
856
856
857
856
856
859
863
871
880
897
917
943
969
994
1006
1013
999
979
953
929
899
874
844
815
799
792
791
795
799
804
806
810
817
822
825
830
834
836
836
835
831
829
832
832
832
833
835
837
835
834
833
831
831
830
828
831
830
832
833
833
834
831
829
828
827
826
824
825
825
826
827
825
825
823
822
822
820
820
819
822
819
819
817
818
815
817
814
814
811
811
811
812
811
812
813
815
811
811
811
808
808
808
810
810
813
815
814
818
819
818
818
819
821
824
828
830
837
842
848
853
856
858
864
865
866
871
873
877
880
880
882
884
885
885
882
882
881
882
881
882
884
883
882
882
882
878
877
876
873
873
870
872
874
873
876
876
877
874
871
871
870
867
867
866
869
869
869
870
870
869
868
868
866
866
865
866
866
868
870
869
869
868
866
864
864
861
862
863
865
868
869
871
869
868
866
865
864
865
869
871
876
880
882
881
883
881
884
882
881
881
880
883
884
886
890
892
890
887
883
881
876
871
868
871
873
874
873
872
870
864
858
856
849
848
850
851
850
851
852
855
853
853
851
850
852
850
851
853
854
854
857
854
853
855
853
853
850
854
855
859
869
882
901
923
949
970
990
999
999
982
957
928
900
872
842
815
797
790
789
791
798
799
805
809
814
820
825
830
835
836
832
829
827
828
828
829
833
832
834
837
836
835
833
831
830
829
829
829
829
831
826
831
831
829
829
826
825
823
825
827
826
826
826
827
826
826
824
820
818
816
814
815
815
817
820
819
816
814
811
813
811
810
810
807
808
808
810
809
810
805
806
806
804
806
804
805
809
811
812
813
813
812
813
813
813
816
817
821
826
829
836
840
845
847
850
853
856
860
861
866
870
874
876
879
877
880
880
879
879
874
876
876
877
875
876
877
877
876
874
873
868
867
867
868
869
865
866
866
866
865
863
861
861
859
859
861
860
863
864
864
864
861
863
860
860
859
859
858
860
860
860
861
858
857
858
858
856
856
857
857
857
859
860
864
861
860
858
860
857
859
862
863
867
870
871
876
876
877
876
877
873
873
875
875
878
879
879
884
883
886
883
874
870
867
864
863
863
866
868
868
864
862
856
852
847
846
844
844
845
847
848
847
848
847
847
842
842
843
844
845
843
848
850
849
852
851
850
849
847
846
845
845
850
856
868
880
895
914
936
958
977
991
997
990
971
948
925
900
873
844
810
790
781
781
787
789
796
804
803
808
811
813
815
819
819
823
826
826
827
829
828
828
829
828
826
824
822
821
821
822
822
824
825
824
824
823
819
821
820
817
816
816
821
821
822
824
820
820
818
816
815
813
810
813
814
814
814
816
816
815
813
809
807
807
807
806
802
803
805
808
806
806
804
802
801
801
800
800
801
803
804
805
807
807
808
806
806
806
808
810
811
814
815
819
818
823
825
825
830
835
838
843
851
858
862
867
871
873
874
876
877
876
877
878
880
881
882
883
880
876
875
877
872
872
869
865
870
870
870
873
873
870
872
868
866
864
864
864
864
866
866
868
866
866
863
861
861
859
857
860
860
864
864
865
863
862
859
860
858
859
857
858
858
859
860
859
860
859
860
859
858
856
853
856
858
861
861
863
862
864
862
862
863
863
865
867
871
876
876
881
880
878
876
875
873
874
877
880
883
884
885
883
881
876
871
869
868
865
865
864
867
865
865
863
859
854
851
849
847
846
843
846
848
849
848
850
851
850
848
847
845
844
846
847
848
849
849
849
851
848
849
849
847
846
850
852
867
881
900
927
953
977
999
1000
988
961
931
897
862
826
798
786
784
787
791
795
798
803
807
809
814
819
824
830
831
829
828
826
827
824
824
824
825
828
828
832
830
826
826
826
824
825
823
824
823
827
826
829
825
823
825
821
821
819
818
818
819
820
820
821
819
820
818
815
811
810
809
809
811
809
809
814
812
809
809
807
803
802
803
803
804
806
808
807
807
804
803
803
803
801
800
806
805
809
811
814
814
814
814
815
813
816
820
825
829
836
838
843
847
852
854
857
859
863
866
868
872
874
876
879
878
876
877
874
874
871
869
869
871
871
872
872
872
870
869
865
865
864
862
863
861
865
864
866
865
864
863
861
860
859
856
859
857
859
859
862
861
861
860
858
859
855
855
854
853
857
856
856
856
856
853
853
856
854
855
854
857
859
860
861
861
859
858
856
855
853
854
854
857
862
863
867
872
871
874
872
872
873
871
872
873
874
877
879
880
883
883
877
874
870
866
863
865
865
865
867
866
863
858
855
852
846
843
842
842
842
843
846
845
845
846
843
842
840
842
842
843
844
845
847
846
845
845
844
844
844
843
844
848
852
858
873
887
904
926
949
970
988
996
992
975
953
928
905
878
848
816
792
781
782
784
787
789
795
796
800
806
810
813
818
819
820
820
818
819
820
821
823
825
825
825
823
820
816
818
818
817
817
820
822
818
820
817
816
815
815
813
812
813
815
815
815
813
812
811
810
810
806
807
807
809
807
809
810
809
807
808
805
804
804
802
802
802
803
804
804
804
805
800
800
797
798
797
797
800
801
802
802
805
806
806
805
804
804
804
806
810
814
819
821
824
828
834
834
838
842
846
853
857
863
867
868
870
870
872
868
868
868
865
867
869
870
871
870
868
866
866
863
860
859
857
855
858
858
859
860
861
859
859
858
857
856
855
853
854
853
854
855
855
853
850
849
848
847
849
849
850
852
851
851
852
852
851
850
848
846
846
845
848
848
848
853
852
852
852
850
850
847
847
850
850
854
853
857
860
862
863
863
863
861
861
863
866
867
869
870
870
872
875
873
870
868
866
862
862
862
859
859
861
859
857
854
852
846
839
842
840
841
841
843
841
839
840
837
837
837
837
836
839
841
841
841
841
841
839
840
840
838
839
839
839
841
842
845
854
862
877
895
917
938
963
983
992
987
972
948
922
893
858
826
799
785
787
793
798
799
800
800
800
803
809
813
815
815
818
819
821
818
819
816
819
819
818
818
818
817
816
817
819
821
820
819
821
821
818
817
815
811
809
809
810
812
813
815
812
812
810
809
807
806
804
805
805
804
807
808
807
805
806
802
801
797
797
796
795
798
798
799
800
797
798
796
796
796
793
794
795
797
796
798
799
799
799
800
799
800
800
804
805
807
811
815
817
820
822
822
826
825
828
835
840
844
849
851
855
859
860
860
862
862
863
865
868
870
872
870
873
871
868
868
864
866
866
864
864
862
864
866
866
864
860
856
855
855
857
857
856
858
856
857
857
856
858
854
854
852
853
850
851
850
853
854
855
855
853
850
850
850
849
849
851
851
852
853
853
853
851
851
849
848
848
849
851
851
851
850
852
854
855
853
853
851
852
853
856
860
863
868
870
869
869
866
867
864
864
866
867
871
872
876
879
877
876
874
870
865
861
857
859
857
859
859
858
857
853
851
846
846
843
843
842
841
843
842
846
846
843
842
842
838
841
841
840
842
842
842
843
843
842
843
842
839
840
839
844
847
853
864
876
891
910
931
955
978
997
1005
1002
988
964
942
917
890
859
824
802
786
787
792
797
798
799
801
806
809
814
818
822
822
822
824
825
824
825
824
823
825
822
819
817
817
822
820
820
819
819
820
824
824
823
820
821
819
818
816
816
815
819
818
820
821
819
817
815
813
813
810
811
814
812
815
814
813
811
809
807
805
805
804
805
801
803
805
806
807
804
802
802
802
799
802
801
801
803
805
804
803
804
804
806
806
804
806
809
811
815
817
818
820
822
823
828
829
835
839
843
851
856
861
862
864
865
869
870
870
871
874
873
875
876
877
876
875
876
875
870
870
867
867
865
866
869
869
871
870
868
865
865
863
863
862
863
863
864
862
866
864
863
861
861
859
861
859
859
861
860
862
862
861
861
859
859
857
856
859
857
858
859
861
863
862
862
862
859
860
859
859
862
863
864
868
871
871
875
876
878
878
878
878
876
877
877
879
882
885
886
885
886
883
880
876
873
869
867
868
869
871
871
867
867
859
855
854
853
853
853
851
853
852
850
850
849
846
845
845
845
846
846
851
851
853
850
850
849
849
848
850
850
850
854
854
853
854
857
865
878
899
923
955
984
1010
1023
1014
991
959
923
888
852
818
796
787
788
797
803
810
816
818
820
820
820
821
823
824
826
827
830
830
830
830
829
828
827
825
824
824
826
826
824
824
826
827
823
823
822
822
820
820
822
823
824
827
826
824
821
817
816
815
817
817
816
818
818
817
818
816
817
815
813
812
812
809
807
806
806
808
807
805
805
803
800
799
797
797
800
800
803
801
804
803
805
804
804
802
800
803
802
805
809
813
815
817
820
822
824
826
830
834
839
842
848
855
858
864
867
869
869
872
872
874
876
879
879
881
878
878
878
877
875
875
874
873
874
873
875
875
876
874
873
871
869
868
868
868
866
868
867
869
870
871
868
867
865
863
863
863
864
865
866
864
863
865
864
864
861
859
862
861
862
863
864
863
864
863
864
863
864
862
860
859
863
862
866
867
870
871
871
869
870
871
873
874
878
880
882
884
885
885
885
884
883
884
887
887
887
884
885
880
877
874
871
870
869
870
869
866
863
861
859
858
856
852
851
851
849
849
849
848
849
852
853
853
853
853
849
851
850
851
850
849
851
852
854
855
857
856
860
870
880
892
912
935
964
989
1012
1021
1014
992
962
933
900
867
833
804
791
789
790
798
805
811
816
818
817
819
822
825
829
831
831
835
833
832
831
832
828
826
827
829
829
829
831
831
833
831
830
831
827
828
822
824
825
826
826
826
827
825
822
824
819
821
818
817
817
816
816
817
821
819
815
813
810
810
808
807
808
808
809
810
811
810
808
805
804
803
802
802
802
806
806
808
809
805
808
808
805
807
807
808
809
812
816
819
825
826
828
832
837
839
843
847
851
859
865
870
871
874
876
879
880
878
878
877
876
879
880
879
883
880
881
876
874
871
870
870
870
871
873
872
873
872
871
870
866
867
867
866
866
866
868
871
871
870
869
866
866
864
859
859
860
860
861
865
866
866
866
862
865
862
861
862
862
861
864
865
868
866
868
866
866
867
866
863
864
866
870
872
875
877
879
880
877
879
881
880
880
883
883
887
889
889
889
891
889
886
882
877
876
876
871
873
874
875
874
873
871
865
861
856
857
855
856
855
855
855
852
854
852
852
850
849
850
853
853
857
860
858
856
854
853
852
854
850
852
852
857
860
864
868
878
889
910
930
956
981
1000
1014
1007
988
958
926
893
859
822
797
785
786
792
797
804
806
813
817
820
823
822
827
828
831
832
834
836
836
834
836
835
835
832
832
833
833
834
831
834
834
838
837
833
833
830
829
829
828
829
829
826
829
829
829
829
828
827
827
824
821
824
825
825
824
824
823
824
823
819
818
816
816
814
815
815
815
816
816
814
813
811
810
809
809
811
809
808
811
811
811
811
811
812
811
812
811
811
816
820
821
825
825
828
828
829
832
834
837
842
847
850
856
861
865
868
869
871
874
874
873
878
880
883
883
887
885
884
883
882
880
880
879
878
880
881
879
878
880
879
877
875
875
874
872
871
870
872
874
873
872
872
869
869
869
866
867
866
867
868
870
869
873
872
870
868
868
868
867
869
866
869
869
871
866
868
869
869
869
866
866
865
868
870
871
873
874
875
872
871
873
872
871
876
878
883
886
887
886
888
888
888
887
886
885
886
891
895
898
898
893
889
885
882
879
875
874
874
876
876
876
876
871
869
865
860
858
856
854
855
853
854
854
857
859
857
859
855
855
854
854
854
856
856
860
859
859
861
859
859
858
858
858
865
873
885
899
921
944
969
992
1008
1016
1012
995
970
945
918
888
859
826
802
792
787
793
801
804
809
813
816
822
828
831
835
837
836
837
836
835
832
832
834
836
839
838
836
833
833
831
829
831
830
832
831
832
832
831
830
831
828
828
825
826
825
825
826
827
831
827
828
825
824
822
822
821
821
819
818
818
819
820
819
818
816
814
813
811
811
811
811
813
813
813
814
812
812
811
810
809
811
811
813
812
815
816
818
817
817
818
820
820
824
826
830
835
840
844
846
850
852
855
860
862
866
870
875
880
881
882
883
883
881
880
879
877
877
879
880
881
882
880
879
876
873
871
869
867
868
871
872
874
873
872
870
869
867
866
865
865
864
863
867
863
865
868
865
866
864
861
861
860
860
860
863
862
864
865
862
863
861
861
859
857
857
857
861
862
864
864
863
860
861
857
857
859
860
864
865
867
871
872
874
875
875
874
874
875
874
878
879
881
883
886
884
882
881
880
877
874
872
867
869
871
871
871
871
867
863
858
853
851
849
848
849
849
851
850
850
845
847
842
843
841
843
846
849
852
853
852
852
851
849
845
841
844
849
848
850
853
857
864
873
889
908
934
959
985
1001
1006
996
974
948
919
884
848
817
796
791
796
805
807
807
805
807
809
813
819
824
827
829
827
830
828
826
826
829
827
828
827
827
827
825
824
824
825
823
825
824
824
823
822
821
821
821
822
823
822
821
823
825
824
824
823
822
816
814
813
811
812
813
812
812
814
813
813
811
809
808
807
807
807
806
806
808
810
808
807
805
803
802
803
803
804
807
810
811
813
813
815
811
812
814
815
817
820
822
826
831
835
840
842
845
847
849
852
854
857
863
866
869
869
870
873
874
875
872
874
874
874
875
874
875
876
874
873
871
868
867
865
864
865
864
864
864
864
861
863
862
860
858
856
856
857
860
859
859
859
857
856
854
855
854
854
857
857
856
856
856
852
853
852
850
850
849
848
850
851
853
853
855
856
857
854
853
853
851
853
854
853
852
856
857
860
861
859
861
862
861
862
865
866
868
869
873
873
875
877
877
873
875
871
864
861
860
859
861
860
858
855
852
850
847
842
841
841
841
841
841
842
839
841
838
837
835
835
835
837
837
838
840
842
840
837
836
837
837
835
838
842
844
846
849
855
857
865
878
897
920
945
974
998
1013
1014
1004
978
946
916
885
855
820
790
772
771
778
789
796
796
793
789
788
794
800
807
814
816
819
821
822
821
822
820
817
818
817
815
815
815
819
818
819
818
818
817
817
817
817
816
816
816
816
816
818
816
813
811
813
814
813
810
808
811
810
810
809
812
812
810
808
809
806
807
805
802
801
801
806
807
806
805
802
801
800
800
800
800
803
802
804
803
802
803
801
801
802
803
803
805
808
808
813
814
815
818
818
821
824
827
832
836
842
846
851
857
859
862
864
863
864
866
865
869
872
873
876
876
877
876
874
871
872
871
869
868
869
869
870
872
871
870
868
866
866
864
864
864
864
865
867
866
865
865
865
862
860
862
861
861
864
865
867
865
865
864
865
866
864
860
860
861
861
862
866
863
864
862
860
863
861
860
859
861
862
863
866
866
864
864
862
864
863
864
863
864
867
871
874
875
877
881
881
881
880
880
883
880
884
885
888
889
891
891
889
884
881
878
876
874
872
872
872
873
876
874
870
868
864
860
857
856
856
855
857
858
857
856
855
853
854
851
854
853
856
857
860
860
860
860
861
858
857
855
856
857
857
859
861
868
873
885
900
923
952
981
1012
1029
1028
1012
982
950
915
874
837
809
795
795
804
808
812
812
815
816
819
824
829
832
834
835
836
838
838
839
840
839
840
840
840
838
837
834
834
837
837
838
837
839
839
838
835
834
835
832
832
832
832
832
834
836
834
834
831
828
827
825
827
826
826
828
826
827
826
824
822
819
820
818
815
817
818
819
819
818
818
817
815
812
812
809
811
810
812
815
818
819
819
818
819
819
818
819
821
821
827
830
833
835
838
840
842
844
846
852
854
860
866
869
876
878
877
881
884
886
886
889
888
890
890
892
892
893
893
891
891
890
887
887
886
886
884
887
886
890
887
887
883
883
881
877
879
877
880
880
878
881
883
883
881
881
877
876
878
878
877
879
879
881
880
879
878
873
873
873
873
878
878
878
880
880
880
882
880
878
877
877
878
877
879
881
884
884
886
888
888
890
888
893
894
893
896
898
899
899
896
896
894
895
897
899
903
902
898
897
895
892
886
886
885
881
878
879
877
874
870
866
869
868
869
866
864
863
863
864
861
864
863
865
867
869
868
866
863
863
861
862
863
863
864
865
867
870
871
877
886
898
915
937
965
994
1025
1047
1054
1046
1022
991
961
932
898
865
837
822
819
824
831
837
842
847
851
850
847
844
843
842
845
848
849
851
849
849
846
844
842
844
841
841
843
843
841
844
841
843
845
842
839
838
841
836
838
839
839
840
838
837
838
836
836
833
831
832
831
831
833
834
832
830
830
828
826
823
823
822
822
822
823
824
824
822
818
815
817
818
816
813
816
814
817
817
815
815
815
812
812
812
812
816
817
820
821
823
824
825
824
828
832
834
838
843
851
857
863
871
874
879
882
883
886
886
887
890
892
893
894
893
890
894
892
892
889
888
886
885
884
886
888
888
888
887
883
881
881
881
880
879
879
884
882
885
884
883
882
880
879
879
877
878
882
881
882
884
882
882
879
876
876
876
875
877
877
878
880
881
879
879
879
879
877
876
875
877
880
882
883
886
889
888
891
891
894
893
894
894
893
895
896
898
901
901
903
901
896
896
891
889
886
886
886
887
885
883
882
878
876
872
869
867
868
866
863
865
867
865
863
861
861
861
860
862
861
862
864
863
864
863
863
861
861
861
861
862
865
866
869
871
873
881
892
907
931
960
991
1018
1037
1038
1021
993
960
922
881
844
820
811
811
821
830
839
847
850
846
845
839
838
836
836
837
841
843
843
843
843
843
840
842
839
839
839
839
838
838
835
838
841
841
840
838
836
836
835
834
835
835
835
834
837
835
833
831
829
827
826
824
823
824
825
824
827
824
822
821
818
816
814
815
815
817
818
817
817
817
815
810
812
812
812
811
808
810
814
814
816
816
818
819
819
818
817
818
820
824
827
831
836
839
844
844
843
851
854
856
861
865
871
877
883
886
885
886
887
887
887
886
888
890
893
889
891
889
889
887
886
885
884
882
883
884
882
884
886
883
881
881
880
879
878
876
875
878
879
879
877
878
877
878
876
872
872
870
871
873
875
877
874
878
876
875
874
874
873
871
872
873
874
874
878
876
877
874
873
871
871
871
871
873
873
875
877
880
882
882
883
885
885
889
889
893
894
896
894
891
890
893
893
894
895
896
899
896
896
894
893
886
883
878
877
877
879
876
873
871
871
867
864
861
863
860
859
859
858
857
859
860
862
864
864
860
861
861
858
858
859
858
857
858
861
862
864
863
864
865
864
869
873
885
900
919
944
973
1000
1021
1034
1033
1018
995
965
939
912
882
851
825
811
807
814
818
823
828
832
834
832
833
835
837
840
842
843
844
841
838
838
838
838
838
841
842
843
840
841
839
838
836
834
836
836
838
838
839
838
836
833
833
832
833
831
828
829
828
829
831
832
831
829
830
826
826
824
824
823
824
824
824
825
823
821
822
819
817
815
814
816
815
814
817
816
817
816
813
814
811
811
811
812
812
814
814
816
816
816
816
817
818
815
820
820
823
829
831
836
836
841
843
845
848
851
854
860
865
869
877
884
886
887
888
888
887
885
885
885
883
884
888
887
887
885
882
880
877
878
878
878
879
878
879
880
877
874
873
873
874
873
872
871
872
873
874
877
875
874
871
869
865
865
866
865
867
869
868
870
872
868
870
868
865
864
864
866
865
866
869
868
869
870
866
866
867
865
864
866
868
871
871
873
873
874
874
877
880
881
882
883
881
885
887
887
888
887
891
892
891
889
883
882
879
876
875
876
876
876
875
870
866
862
859
855
856
856
855
856
858
854
855
853
850
848
847
848
847
851
852
852
852
852
853
851
851
849
849
850
851
853
855
856
860
865
872
884
900
920
947
972
996
1014
1017
1003
976
943
904
864
826
798
788
787
792
797
801
808
809
815
818
822
824
825
826
826
830
831
832
830
832
828
828
826
823
823
823
824
824
825
824
827
828
826
823
824
822
820
820
823
823
821
824
824
823
820
820
816
815
816
815
815
813
815
814
815
815
816
813
813
812
810
812
811
812
812
812
811
811
808
807
806
804
801
804
803
803
806
806
807
807
804
807
808
808
808
809
811
812
817
819
824
825
828
831
833
835
839
843
846
848
854
861
865
867
868
872
871
871
872
875
875
876
879
879
876
878
878
875
874
870
871
869
869
868
869
869
870
868
868
866
862
861
860
861
862
863
861
860
864
865
861
860
857
857
857
858
859
859
861
862
863
860
859
860
859
857
856
853
853
853
855
858
860
858
860
861
858
858
858
856
856
858
856
858
860
861
863
862
862
860
859
861
865
867
870
873
875
876
874
873
871
869
868
870
874
878
881
883
882
880
877
873
869
864
861
861
865
865
866
864
862
860
853
850
842
842
840
839
840
842
843
841
845
847
846
846
843
847
843
844
845
844
844
847
847
850
849
850
849
848
850
854
864
875
894
916
942
971
994
1006
1007
995
971
944
919
895
865
832
806
794
792
798
801
799
799
798
798
805
811
816
823
826
826
826
823
821
819
818
818
819
822
823
825
825
825
825
825
822
822
819
820
819
817
819
819
819
817
812
815
812
812
812
812
812
816
817
818
816
815
815
810
811
807
806
807
809
809
810
810
810
809
807
803
803
801
801
799
803
805
806
806
806
806
806
800
800
798
796
798
797
800
806
808
811
812
814
814
816
819
820
825
828
834
839
842
844
849
852
853
855
856
858
862
863
866
869
871
871
869
869
866
865
866
863
865
865
864
864
863
865
861
859
858
859
856
856
855
853
856
854
857
860
861
861
860
855
853
851
852
850
850
853
856
857
856
854
854
852
852
850
851
851
853
853
854
850
851
853
854
852
851
853
852
855
856
860
858
861
858
862
863
864
864
863
864
867
866
868
871
871
872
873
877
875
873
871
869
866
865
864
866
866
866
862
861
859
855
853
851
850
848
848
847
844
847
845
841
841
841
841
840
841
845
846
844
845
844
845
844
845
843
844
844
848
851
852
856
862
872
883
901
925
949
976
998
1005
1001
982
955
921
887
851
816
792
784
789
797
803
805
804
806
809
813
818
821
825
828
826
828
831
827
832
831
831
831
830
829
830
828
826
827
827
829
828
826
827
829
828
826
824
824
827
825
824
824
826
827
828
826
827
825
822
822
820
819
821
821
821
825
826
824
823
820
819
816
816
816
817
818
819
820
818
818
815
814
813
813
812
813
813
812
813
813
817
816
816
816
817
815
812
812
814
816
818
823
824
829
830
832
835
837
838
840
844
852
854
860
867
870
872
874
877
877
878
878
881
886
886
887
888
889
889
889
887
887
885
886
886
885
887
887
889
887
885
884
882
880
879
879
880
880
880
880
880
881
881
880
879
878
877
875
877
877
879
877
878
878
877
878
877
878
876
876
876
878
880
882
883
882
881
880
879
876
873
875
876
879
880
883
883
883
884
880
880
879
880
877
878
883
885
888
892
892
890
888
892
892
894
895
896
895
898
899
898
899
900
901
902
902
902
898
897
896
892
892
890
890
891
888
888
885
880
878
875
874
876
872
872
874
872
872
871
872
871
869
870
872
873
873
872
872
873
874
873
871
870
870
872
872
875
878
881
885
890
898
911
928
946
970
994
1015
1031
1038
1030
1011
983
956
929
901
869
846
827
823
827
831
834
834
836
839
840
842
843
844
848
853
855
856
858
856
857
856
856
852
853
852
854
855
855
856
858
857
851
851
851
847
848
846
848
848
850
851
851
851
849
847
847
846
843
845
843
844
845
846
847
845
843
842
840
838
837
837
836
837
836
839
840
840
838
837
835
833
832
831
828
830
832
831
836
834
833
834
832
831
831
831
834
835
838
840
845
848
849
852
854
856
859
864
869
875
877
887
891
894
895
899
899
899
901
900
900
903
907
905
908
907
906
905
904
901
901
900
902
901
901
901
904
902
901
899
899
898
896
898
897
897
899
899
899
900
899
899
897
896
895
894
896
895
897
897
900
898
896
896
893
892
891
890
891
890
892
894
896
895
895
895
895
896
896
895
894
895
898
903
908
908
909
908
906
905
904
903
909
915
915
918
917
915
912
908
906
902
901
898
898
897
898
897
894
892
890
887
884
883
880
877
876
879
879
880
880
881
879
881
876
874
875
875
877
878
882
882
884
883
884
884
882
882
884
883
889
896
912
930
952
977
1002
1026
1040
1042
1029
1002
974
947
917
888
860
844
835
839
843
853
857
861
863
864
863
863
862
858
858
856
858
858
857
856
855
855
857
859
857
859
857
857
855
854
854
854
855
855
855
855
857
856
851
853
853
850
849
849
846
851
851
850
850
848
848
847
845
842
841
839
838
839
840
840
840
842
838
838
835
833
832
830
830
831
831
830
832
830
829
829
825
822
822
821
821
825
827
832
832
831
834
834
831
834
836
839
839
847
851
855
860
862
866
869
872
876
881
883
887
891
895
898
902
904
905
905
903
902
903
902
901
904
906
907
908
907
907
903
902
901
901
899
900
900
900
903
903
900
900
899
896
895
892
892
890
894
895
894
895
894
894
893
893
890
889
890
889
892
891
893
897
897
895
894
892
890
888
887
890
891
892
892
893
893
895
894
894
891
893
891
893
896
897
901
904
905
905
906
908
909
908
907
908
908
907
911
911
914
916
916
913
914
913
907
904
901
901
898
897
898
897
896
892
888
885
883
880
880
881
879
880
883
880
880
878
878
875
878
877
879
882
881
881
882
882
882
879
879
878
879
880
883
886
895
906
920
936
957
982
1004
1024
1036
1036
1023
1003
979
953
925
894
866
847
838
838
842
847
854
859
862
864
863
860
856
853
853
855
855
855
858
858
857
859
858
858
856
854
853
848
847
848
849
849
851
850
853
850
850
850
848
847
843
845
848
845
846
848
846
844
845
842
840
839
840
839
838
839
840
838
839
838
837
835
835
834
833
832
832
834
835
835
832
831
828
829
826
826
826
825
826
827
829
831
830
833
830
830
830
832
830
832
834
837
840
845
846
848
848
853
855
857
861
867
871
878
884
889
893
896
898
899
899
894
895
900
903
903
905
906
903
901
902
901
898
898
897
896
895
894
897
897
895
893
893
893
892
890
885
887
887
888
890
889
890
888
886
886
887
884
885
883
883
885
886
887
887
887
886
883
883
882
883
882
884
883
886
889
888
885
886
882
882
882
882
883
885
888
889
890
891
892
895
897
899
899
901
900
901
902
900
904
903
901
903
902
906
904
904
902
900
896
895
893
893
891
890
888
886
887
883
880
877
877
875
874
870
872
869
866
865
866
865
865
864
866
866
866
868
867
867
869
868
864
866
866
866
871
871
875
877
874
874
875
879
886
898
913
935
962
987
1014
1030
1030
1020
995
965
935
903
868
843
828
824
825
834
840
846
848
846
841
839
840
843
847
845
848
850
844
844
845
840
839
838
838
841
842
842
843
846
845
843
842
840
839
839
837
840
840
841
841
843
842
838
835
835
830
831
834
832
835
833
834
834
832
831
828
826
824
823
824
825
826
826
825
826
826
824
822
821
818
818
815
816
819
818
817
817
817
817
817
814
814
813
814
814
819
819
822
824
824
822
825
826
825
826
829
834
839
842
847
848
851
855
857
863
865
868
872
877
882
884
887
889
889
891
890
890
889
888
888
889
888
889
889
891
887
888
886
883
882
880
880
881
884
882
883
884
883
880
877
874
871
871
873
874
874
874
875
874
874
873
872
870
868
867
868
869
870
872
873
871
871
868
867
866
864
867
865
866
868
871
871
872
873
871
869
869
868
867
871
875
878
882
885
888
890
889
889
887
885
884
885
886
887
890
894
899
897
897
892
885
879
878
874
876
877
878
879
879
877
872
867
861
857
857
855
856
856
857
857
853
856
854
855
853
851
851
853
852
854
856
857
859
857
856
857
856
856
860
865
875
889
909
931
959
984
1005
1018
1017
1003
977
951
923
896
866
835
816
805
806
808
812
815
819
820
823
826
828
830
834
834
834
835
832
829
829
831
832
828
832
832
831
832
833
830
830
826
826
826
827
829
830
830
827
828
827
826
826
822
820
821
822
822
822
823
823
822
820
817
817
815
814
813
816
814
816
816
816
815
813
811
808
806
805
805
805
808
809
810
811
811
810
807
808
806
806
808
809
813
813
815
815
818
818
820
825
822
822
825
831
833
837
841
848
849
853
854
856
859
861
865
871
876
878
881
884
885
884
883
882
880
880
877
878
877
879
879
879
877
877
874
873
871
871
872
871
872
871
872
873
867
869
867
866
865
865
863
864
865
865
865
866
866
866
867
865
863
862
862
863
861
862
863
865
862
861
860
861
860
860
859
860
863
864
864
865
865
863
863
862
861
862
866
871
875
878
882
885
880
880
883
882
881
880
883
883
885
888
891
890
887
879
876
873
872
871
871
873
873
870
870
867
865
859
855
853
851
849
848
848
849
849
849
851
850
852
851
849
849
849
849
851
853
855
854
854
857
856
854
855
852
851
855
862
874
887
906
927
953
972
996
1009
1012
998
976
951
921
893
856
826
804
795
795
796
801
804
810
817
824
829
833
835
836
836
834
832
832
831
831
832
834
835
835
834
831
830
834
833
831
830
830
831
831
833
834
834
834
832
830
829
826
825
824
826
827
829
830
830
829
827
826
824
820
818
818
819
822
823
822
822
822
820
820
818
816
813
815
812
813
813
816
815
815
815
814
813
811
811
814
814
816
819
821
824
825
827
826
828
829
831
835
839
842
846
853
854
858
863
864
870
872
875
877
880
883
886
889
891
893
892
888
888
885
883
882
883
884
883
886
884
883
882
879
878
876
875
877
875
876
872
875
875
874
874
874
872
869
867
866
865
866
866
868
867
868
868
866
866
864
863
862
861
861
865
865
865
869
868
865
864
863
862
863
866
866
865
868
869
868
868
868
867
867
867
873
875
879
882
884
886
886
885
884
883
882
881
880
886
887
890
894
895
894
891
887
877
873
873
872
875
876
873
874
872
871
867
859
857
856
854
852
852
854
858
856
858
858
856
856
853
854
852
852
853
855
857
857
859
859
859
856
856
858
862
869
881
900
918
939
965
987
1006
1016
1010
992
968
941
916
890
858
828
808
796
797
800
803
807
810
811
815
821
825
830
835
838
838
837
835
832
830
830
831
832
833
836
836
835
834
835
835
833
832
828
830
830
832
834
835
836
832
832
831
829
827
825
827
827
827
827
828
829
827
827
824
824
821
821
819
821
823
823
824
823
822
820
819
816
814
813
815
815
817
817
817
816
816
817
811
814
815
813
811
811
814
817
816
821
822
822
825
823
825
825
827
829
833
835
840
842
846
844
849
851
856
860
862
866
867
873
877
881
884
885
884
884
885
884
883
883
884
887
889
886
885
884
880
880
879
877
878
878
876
878
877
876
876
873
871
868
869
867
868
864
868
870
873
873
874
871
869
867
864
864
863
864
862
863
868
867
865
864
863
864
862
860
862
862
864
865
864
866
865
865
862
862
860
858
859
859
860
861
863
865
866
868
868
870
869
872
872
876
876
879
881
882
880
878
877
876
878
881
885
884
885
881
879
873
868
866
866
866
867
866
864
862
859
857
856
853
850
848
844
843
840
840
841
846
847
846
845
845
843
842
842
843
842
840
839
842
843
843
844
846
845
846
846
851
857
868
882
901
926
951
973
994
1004
996
983
959
932
906
882
855
824
798
782
778
780
785
791
794
799
802
810
815
820
822
825
826
820
820
817
816
812
814
817
816
818
820
821
822
819
819
817
815
815
812
815
814
814
813
814
814
813
814
813
810
811
809
814
812
813
810
810
808
806
804
801
798
803
799
799
796
801
801
802
799
799
797
795
795
794
792
789
790
790
791
795
794
795
793
793
790
790
793
794
795
798
802
805
806
806
807
808
809
813
816
819
824
830
833
836
838
840
846
846
846
852
852
854
856
859
861
863
863
864
861
860
857
858
857
854
853
855
852
854
853
851
849
847
847
844
842
842
842
843
846
852
850
850
847
845
840
838
839
837
838
840
842
844
841
837
838
835
836
835
835
835
837
838
838
838
838
835
836
835
834
834
834
835
833
837
838
841
841
842
845
847
849
852
854
856
854
852
857
856
858
856
855
855
854
859
859
859
858
858
855
852
849
845
843
846
842
844
842
836
837
835
833
832
830
830
828
824
821
820
819
819
820
820
822
825
826
825
824
826
823
821
821
822
822
823
826
829
831
830
836
841
851
861
878
899
924
949
970
981
982
968
943
916
893
868
838
811
782
764
760
765
772
774
780
785
789
789
793
798
798
801
806
810
810
807
802
803
801
802
802
801
802
804
807
804
805
806
804
803
802
797
796
800
802
802
804
803
804
803
801
799
798
797
797
795
795
796
797
797
798
797
794
791
790
788
787
787
787
787
787
790
791
787
786
785
783
783
778
779
782
785
786
789
793
791
792
787
789
789
789
791
795
796
799
802
804
804
806
809
808
812
814
818
822
827
834
837
843
843
845
847
848
851
850
853
854
855
855
856
856
856
857
856
852
850
852
852
850
849
847
850
849
848
845
845
844
843
842
841
842
843
842
843
844
843
840
839
836
836
834
833
834
838
842
841
838
840
839
838
833
834
833
834
836
836
837
838
841
839
838
837
838
835
836
837
837
839
840
842
841
844
846
847
846
850
853
854
855
856
856
855
855
856
854
853
855
856
860
861
858
858
854
850
848
846
845
844
845
840
835
832
831
828
827
828
826
823
824
823
821
822
824
821
821
827
827
827
828
828
827
826
825
823
823
822
825
828
830
832
833
838
845
855
868
885
906
933
954
972
980
975
955
929
899
873
842
810
784
770
766
769
774
779
784
789
791
793
793
798
801
806
808
809
804
806
806
805
805
801
800
798
798
800
799
803
804
806
807
803
802
805
803
800
801
799
800
802
802
802
802
801
802
800
798
797
796
794
797
798
797
796
796
796
795
791
790
790
791
790
790
792
792
795
795
795
792
791
792
788
788
790
793
796
794
798
799
801
802
803
803
804
808
810
812
815
823
827
832
837
839
840
844
844
847
849
856
859
860
864
865
865
865
863
862
860
859
861
862
863
864
864
863
861
861
860
858
856
855
856
852
853
853
855
853
852
851
849
848
850
849
849
847
847
850
851
852
851
849
849
846
846
844
845
847
847
849
853
849
851
850
849
848
845
845
845
851
852
854
855
856
856
853
855
856
855
858
860
860
865
868
869
875
875
874
873
871
870
871
873
876
879
882
883
882
877
873
868
863
859
860
861
863
863
862
858
853
850
847
842
841
838
839
837
841
842
843
845
844
843
840
838
837
835
835
838
839
841
843
846
847
847
844
843
841
838
842
847
859
875
893
917
946
969
987
994
984
968
940
915
893
867
841
818
802
793
795
797
798
792
792
790
797
802
808
816
823
827
824
821
817
820
818
818
818
821
819
820
822
821
820
820
817
816
817
816
819
818
820
823
825
823
823
822
822
821
820
820
821
822
821
818
820
819
818
815
815
813
811
812
810
811
811
813
812
812
814
810
811
808
806
806
806
808
806
807
809
809
808
808
806
805
806
810
811
813
815
816
817
817
818
819
818
818
821
826
829
830
835
840
841
846
848
850
852
855
855
859
862
868
871
870
875
876
878
876
878
878
879
878
876
876
874
876
875
872
869
866
864
862
862
862
861
860
862
862
863
862
859
856
857
857
855
853
854
855
852
855
854
854
853
851
850
849
848
849
852
853
853
856
856
854
853
851
854
853
851
853
850
853
854
856
857
857
858
855
856
853
855
859
861
865
866
868
868
868
866
866
865
867
868
869
870
870
871
870
869
865
862
861
858
856
854
854
851
852
851
849
847
842
840
834
833
835
834
835
836
837
838
842
839
839
838
836
835
835
834
837
841
841
843
844
845
848
851
860
872
888
909
937
966
989
1006
1009
1000
976
943
915
884
847
813
785
772
774
783
791
792
789
788
787
789
796
801
810
813
815
819
819
819
817
814
813
815
813
813
814
814
815
816
816
815
814
815
811
810
808
808
807
809
810
808
809
812
812
809
806
805
805
803
803
806
806
807
806
808
806
806
803
802
800
798
798
798
799
800
799
802
799
798
798
794
793
793
792
795
798
799
801
801
799
798
799
803
803
805
806
809
810
811
811
817
816
819
822
824
826
830
835
840
845
849
856
861
863
864
864
868
863
867
865
869
871
873
873
872
869
869
868
866
865
863
861
863
863
863
862
864
863
862
858
859
855
854
855
856
855
856
856
858
856
857
855
854
852
851
851
851
851
852
853
856
855
855
854
852
852
850
849
850
852
852
854
856
857
857
856
855
856
853
852
854
856
855
856
859
861
864
864
861
862
864
866
867
868
871
871
871
870
872
873
874
874
875
875
870
867
866
865
866
863
862
861
860
856
853
850
848
848
846
845
843
845
844
842
842
840
840
837
839
839
840
842
843
842
841
839
835
837
838
839
842
846
846
847
850
849
854
865
878
896
921
952
983
1009
1017
1013
990
959
923
882
837
798
777
773
778
784
788
792
798
803
805
810
816
817
820
817
816
819
819
821
822
821
823
819
817
816
816
817
818
818
817
819
818
818
818
818
816
814
813
812
810
814
814
816
815
815
814
809
810
808
808
806
807
808
810
810
813
813
811
812
810
805
807
805
806
808
808
809
811
808
805
803
802
800
802
800
803
805
806
807
809
811
811
811
810
813
816
812
815
818
823
825
828
828
830
833
836
839
841
844
847
853
858
861
866
867
870
871
873
871
874
875
877
879
878
880
881
878
876
875
873
876
873
872
870
870
872
871
870
871
872
870
868
867
867
864
863
865
864
866
866
866
865
863
861
859
859
856
859
860
861
863
865
861
859
860
856
859
857
857
855
857
859
861
863
861
861
860
861
862
863
863
866
869
872
874
876
873
873
873
874
876
877
879
882
883
885
884
883
881
877
873
872
870
867
866
864
864
862
863
862
858
856
851
849
847
846
846
845
846
847
849
849
850
848
847
846
844
845
843
843
845
847
850
852
850
851
851
854
863
876
890
911
938
968
997
1021
1034
1029
1015
986
958
927
895
860
827
800
788
789
792
797
800
805
811
813
816
820
822
825
829
831
831
830
827
827
826
826
824
824
830
828
830
831
830
827
826
825
824
823
823
821
823
826
825
827
827
825
824
821
821
820
817
818
819
820
820
822
821
818
816
814
811
813
809
810
807
811
810
812
811
811
808
808
806
804
800
802
801
799
802
804
802
802
800
799
800
801
799
800
804
805
808
809
810
810
810
810
810
813
814
816
819
825
832
836
838
845
848
851
852
855
857
858
862
869
875
878
878
881
879
880
881
880
876
877
880
880
882
883
884
882
880
877
876
873
875
873
875
874
873
877
876
872
873
870
870
867
867
868
867
867
871
871
868
868
869
867
867
867
862
862
865
866
868
869
869
868
866
867
867
866
867
866
867
870
871
874
871
873
873
872
871
868
867
871
875
876
879
883
884
888
889
889
888
889
885
886
886
890
890
892
892
896
896
894
894
890
883
878
877
876
881
881
878
878
874
868
863
861
860
859
860
861
858
860
858
859
860
858
857
857
856
853
858
858
859
862
860
859
859
856
855
853
856
853
856
859
858
866
875
885
900
917
943
970
997
1020
1036
1039
1021
999
971
941
913
881
848
823
809
807
809
819
828
837
841
844
842
839
834
832
832
835
837
838
841
841
841
840
839
836
836
834
832
833
834
834
836
837
837
836
835
834
834
832
832
831
833
834
833
834
834
833
830
829
826
825
822
825
825
826
825
826
826
826
824
821
819
820
818
818
818
820
822
822
819
818
815
811
810
811
812
813
814
817
819
818
818
820
820
820
819
819
820
825
827
829
833
838
841
844
849
851
855
857
860
865
872
876
880
885
888
890
889
890
891
892
892
891
892
893
893
895
894
892
891
889
889
885
884
881
884
884
885
889
886
886
884
881
880
879
876
877
877
878
878
880
880
878
878
876
874
874
875
874
874
875
878
877
878
874
874
872
871
871
868
870
872
873
874
874
873
872
871
870
870
868
869
869
875
876
882
885
887
890
891
888
884
886
883
885
885
888
892
894
896
899
898
898
891
887
883
879
876
876
880
881
882
880
873
869
867
861
861
858
860
860
860
859
860
860
859
857
856
855
853
857
858
857
860
860
860
859
860
858
858
855
855
855
861
869
881
900
924
955
980
1010
1026
1027
1013
985
962
935
907
877
846
823
809
805
810
815
824
830
834
838
838
836
834
832
833
834
835
836
834
833
834
835
835
836
835
835
835
835
834
829
831
831
832
832
833
835
834
833
832
832
832
829
828
827
828
829
829
830
831
829
827
823
823
820
820
818
819
818
820
817
820
817
816
816
813
810
812
809
811
811
811
812
813
811
810
807
810
806
808
809
808
811
813
816
818
817
820
820
818
820
819
821
824
828
833
836
841
842
849
851
853
855
863
866
870
871
875
882
881
886
884
884
882
882
882
881
882
883
881
883
884
881
882
880
876
876
874
873
874
874
876
873
874
874
872
870
869
867
867
868
869
868
869
868
871
870
867
866
863
863
863
862
863
866
866
867
867
865
864
863
865
864
863
864
864
864
865
869
867
867
867
866
867
866
869
870
875
879
883
887
887
889
886
885
883
882
881
882
884
886
890
895
894
891
886
880
875
871
871
869
871
872
872
870
867
862
857
854
853
851
849
850
849
849
852
850
850
851
852
852
850
850
847
848
851
850
852
852
854
854
852
853
852
852
857
864
877
892
912
937
965
990
1010
1018
1014
994
967
940
914
886
854
825
804
794
793
796
799
804
807
811
815
820
821
824
830
832
832
829
829
830
824
826
822
827
829
832
830
831
827
826
824
823
825
823
825
826
825
828
827
827
825
823
824
819
817
819
820
822
821
825
821
820
817
816
816
816
815
813
816
815
816
817
814
815
815
813
809
810
812
809
810
810
814
813
813
812
813
808
811
810
810
812
812
814
813
818
821
822
822
824
826
823
825
830
834
839
842
849
856
858
864
866
867
869
872
870
874
877
878
883
885
881
880
880
879
876
876
875
875
875
873
874
874
872
871
867
867
865
863
862
862
864
865
865
865
865
864
863
859
858
859
857
858
857
860
861
860
860
855
855
855
852
849
851
849
855
854
855
853
855
853
853
849
851
851
852
854
856
856
857
858
859
858
857
856
856
861
863
865
868
872
875
876
874
873
872
870
869
870
870
876
879
882
884
886
879
873
870
865
864
864
865
867
869
866
861
859
855
852
849
847
844
842
844
842
842
844
847
846
845
844
842
842
842
842
840
841
841
842
845
845
847
845
844
841
839
840
839
842
846
856
868
884
904
926
955
982
1001
1010
1002
982
954
926
899
869
835
807
788
784
785
793
798
795
794
797
798
803
811
816
819
821
822
820
819
819
818
821
822
820
819
819
820
819
819
817
816
815
815
815
816
817
819
820
818
818
817
814
816
814
817
815
821
819
816
816
811
809
808
808
808
810
811
811
810
809
810
808
808
806
805
805
806
806
806
806
808
810
807
805
805
802
799
801
798
800
801
807
807
810
811
810
811
810
811
811
814
815
815
817
821
823
827
827
832
833
834
839
840
842
851
852
855
862
862
863
866
865
866
866
868
869
870
871
868
871
869
870
868
865
864
863
864
865
864
864
864
865
862
859
859
856
854
852
853
853
854
853
854
855
856
854
851
850
847
847
847
845
845
846
849
849
848
847
846
843
844
841
842
842
843
845
845
850
850
849
850
847
845
847
845
844
844
845
847
850
851
851
853
854
853
854
856
859
860
861
860
861
862
861
861
864
866
864
864
864
865
862
861
861
859
855
851
847
846
844
842
840
841
838
839
838
835
834
830
829
828
827
827
828
828
829
832
835
830
832
829
826
825
826
824
825
831
831
835
841
846
860
875
896
919
947
972
993
1006
1003
989
962
932
903
872
835
798
773
763
768
778
783
784
781
779
782
786
791
797
802
806
806
806
807
809
808
803
803
804
804
802
802
802
800
802
801
804
802
803
804
805
803
800
800
800
799
802
802
803
805
803
800
798
797
796
793
794
796
798
797
800
802
799
799
795
794
792
790
792
791
790
792
792
794
794
792
789
789
789
787
788
788
791
795
795
798
795
797
794
793
795
794
796
799
802
804
805
806
808
809
812
816
816
819
823
825
830
838
843
850
852
856
855
855
855
857
855
857
860
860
864
864
864
862
859
859
857
857
855
856
854
853
855
855
852
850
847
850
848
849
847
847
849
848
847
850
847
848
844
844
845
843
843
844
845
848
850
851
848
847
845
843
840
839
838
840
842
847
848
850
849
846
845
843
844
844
843
843
843
844
845
847
850
849
851
853
853
856
857
858
863
862
863
864
865
866
864
864
862
862
864
867
868
870
870
868
867
864
859
857
856
856
855
856
855
852
849
849
846
843
841
839
837
838
836
837
838
838
841
841
842
842
840
840
838
839
837
838
840
843
846
845
845
846
843
842
842
844
850
858
872
892
914
947
977
1004
1025
1030
1013
987
956
924
887
844
810
788
783
788
797
799
800
798
797
800
808
816
824
831
831
831
831
829
827
825
823
823
826
827
829
832
832
832
831
829
827
826
827
827
828
831
829
830
831
829
828
828
826
828
826
827
824
827
829
829
830
827
825
822
824
822
823
823
824
826
826
828
826
823
824
823
821
820
819
819
817
819
821
822
823
822
820
818
820
819
820
819
825
827
828
834
834
834
832
835
835
837
838
838
844
852
854
862
866
866
868
873
876
878
882
884
888
892
894
898
899
901
899
899
900
898
896
897
898
896
896
899
897
893
892
891
888
889
886
886
889
892
891
894
891
890
887
887
886
885
883
884
884
884
885
886
886
886
884
882
880
882
879
880
881
883
884
886
885
884
884
881
882
880
880
879
881
883
883
886
883
883
884
880
883
882
882
884
888
893
897
899
900
898
897
895
898
896
895
897
899
903
906
907
906
902
898
893
885
883
883
882
882
884
887
887
881
878
874
872
870
864
864
862
864
865
866
868
867
867
865
866
863
862
862
864
864
867
866
867
868
868
866
866
866
874
881
896
915
939
968
999
1027
1045
1051
1041
1014
984
948
917
883
851
828
815
813
813
820
826
835
838
839
843
841
841
841
843
844
843
844
842
842
840
839
839
840
839
839
842
840
840
839
837
836
835
833
834
835
835
835
838
836
836
833
833
831
830
828
829
831
831
829
830
827
827
825
821
822
820
820
818
818
819
821
820
821
820
818
815
813
811
807
808
810
812
813
813
813
813
811
810
810
810
807
807
811
814
815
818
817
817
818
820
820
821
823
825
830
836
839
846
851
852
859
863
867
868
874
877
878
884
886
888
888
890
889
890
886
886
884
885
884
887
887
886
885
884
884
880
881
880
879
878
879
880
883
880
881
881
880
875
875
872
874
875
874
875
876
878
878
874
876
874
874
872
870
868
871
871
876
876
875
873
872
871
869
867
867
868
870
870
870
870
870
871
872
873
871
871
875
880
882
887
890
892
893
892
891
887
885
883
885
887
890
894
897
898
895
889
885
879
875
875
871
874
875
876
875
875
872
866
859
858
855
853
851
852
850
851
853
854
857
858
856
856
855
855
853
854
856
857
858
857
861
859
860
857
857
855
856
857
863
869
884
900
917
943
970
999
1022
1032
1024
1002
972
937
894
857
827
806
801
802
810
818
827
830
835
833
832
827
830
831
832
832
832
832
831
831
830
833
834
835
835
834
831
831
830
827
826
825
827
825
829
829
829
830
829
826
822
822
820
821
821
822
824
823
822
821
820
818
819
815
815
814
814
815
815
816
816
815
813
813
811
809
806
806
806
807
805
806
806
805
804
802
802
800
801
800
805
806
808
811
810
811
810
809
807
810
811
814
819
826
829
836
841
845
849
853
855
859
861
865
871
874
877
879
880
881
878
875
880
878
878
877
879
879
880
878
880
879
878
875
873
868
868
868
868
870
869
870
869
868
867
862
864
863
862
862
863
863
862
864
866
864
866
863
862
860
860
858
859
860
860
863
863
865
861
861
859
858
858
858
858
858
860
862
862
861
862
864
863
864
865
868
875
877
880
882
883
884
880
879
878
875
877
878
881
885
888
889
887
880
877
871
868
866
865
863
866
868
865
865
861
856
852
847
845
842
843
842
844
845
845
846
846
845
847
846
846
841
844
844
846
847
850
852
850
851
848
847
852
860
868
883
904
931
961
992
1013
1023
1017
998
970
938
912
881
849
822
801
793
794
796
804
807
811
813
816
816
817
820
820
828
829
831
829
826
824
823
824
822
823
823
825
827
825
824
823
823
821
821
819
820
820
821
819
820
823
824
821
817
815
816
815
817
816
816
818
817
816
814
814
812
812
811
809
809
808
807
808
810
809
809
809
807
803
803
802
802
803
803
803
805
806
807
807
805
805
805
805
806
808
810
812
814
815
817
818
818
821
820
821
825
830
836
839
845
849
853
858
860
862
863
869
872
876
877
881
883
884
882
881
878
877
875
873
875
875
875
874
875
876
872
871
871
868
867
868
867
867
866
868
868
866
867
865
865
863
860
860
860
861
860
861
862
863
863
862
863
860
859
859
860
860
861
861
863
864
862
863
861
858
858
856
856
859
861
862
864
864
863
863
864
864
863
865
869
871
879
881
883
885
883
884
881
878
878
876
881
885
887
889
888
886
882
877
871
869
869
865
868
868
870
868
867
864
860
856
853
851
849
848
850
848
850
851
853
852
851
849
848
848
844
845
845
845
849
849
853
852
850
851
850
850
853
860
869
883
900
924
948
979
1002
1015
1013
994
966
934
894
858
818
794
781
781
786
793
803
811
814
819
818
822
823
827
830
831
829
828
828
827
824
825
823
823
826
822
825
824
827
826
824
823
822
821
822
821
823
823
825
823
824
825
822
820
819
818
816
818
818
818
820
821
819
819
815
817
815
810
811
812
812
812
815
812
811
810
808
808
808
806
805
804
805
805
802
804
807
808
806
803
806
806
806
810
812
816
816
819
820
821
821
818
822
826
828
834
838
840
846
851
854
859
862
864
867
867
874
874
877
881
884
885
885
884
882
882
881
879
878
878
878
878
879
876
875
875
872
873
870
870
867
870
868
868
871
869
869
868
865
866
864
863
862
863
865
865
865
868
864
864
864
863
861
860
859
859
861
862
860
859
861
861
860
861
858
858
860
861
862
863
863
866
864
865
864
865
864
864
867
872
875
880
883
885
886
886
885
883
884
882
881
883
886
889
891
895
890
889
884
880
878
873
869
871
873
873
875
875
871
868
866
861
857
853
852
851
852
851
854
852
852
852
851
851
851
851
846
848
849
851
855
856
856
855
852
849
848
848
850
859
866
878
895
911
932
959
982
1002
1016
1012
997
970
944
919
892
862
829
800
787
784
786
790
796
805
810
814
820
825
827
829
831
830
834
834
833
832
835
835
837
839
837
836
833
832
831
831
830
832
831
832
832
835
835
828
827
827
828
825
826
827
826
827
829
827
827
825
823
821
819
819
821
821
821
824
824
825
824
820
821
818
816
816
814
815
817
818
819
819
817
814
816
813
812
811
811
811
811
814
818
819
818
817
819
816
817
817
819
822
825
827
832
835
837
839
840
844
844
850
852
854
860
864
870
871
874
877
880
882
885
884
884
886
888
886
888
887
885
881
883
880
881
880
878
879
877
878
878
878
880
879
876
874
869
872
870
871
869
872
869
873
872
872
869
868
868
865
866
867
868
871
869
871
869
868
867
866
864
863
864
864
865
863
865
864
865
864
865
866
866
867
864
865
866
867
869
871
872
871
873
874
873
874
877
879
881
881
886
889
890
889
887
885
886
886
889
891
892
893
891
889
884
880
876
875
872
874
871
868
866
866
864
863
861
859
857
856
855
851
852
853
853
856
855
855
856
854
854
853
851
851
852
853
854
855
857
858
857
859
860
862
876
889
904
928
956
983
1005
1016
1013
996
967
941
913
885
857
827
806
794
794
797
803
804
808
815
820
824
830
834
836
837
834
836
835
834
832
831
832
830
829
829
830
833
834
834
831
830
829
830
828
828
826
827
828
831
830
831
829
828
827
825
823
823
823
825
823
824
824
824
827
824
823
819
818
818
816
818
818
819
820
819
821
815
815
814
814
812
812
813
815
819
820
823
822
819
821
823
826
827
828
831
833
837
840
847
849
852
856
857
860
864
865
867
873
878
883
888
888
888
889
888
889
889
886
886
887
885
887
886
884
884
881
877
878
875
875
875
875
877
877
878
876
875
874
873
871
867
868
866
868
871
870
874
872
871
869
869
863
862
861
862
865
863
865
866
865
867
866
865
863
861
860
861
863
863
865
867
866
865
864
862
862
861
861
861
864
867
867
870
873
874
875
875
877
876
878
878
879
881
882
883
884
886
887
887
887
887
883
880
878
877
875
874
878
875
874
869
866
862
857
856
856
857
858
856
855
855
853
852
850
851
848
847
849
851
852
855
851
854
852
853
851
852
851
853
858
868
878
896
916
939
965
985
1004
1011
1011
999
976
953
927
904
872
835
808
793
796
802
811
809
805
802
802
806
813
819
823
828
829
830
830
830
826
828
830
833
834
835
832
831
828
827
825
826
826
828
831
831
829
830
829
829
824
825
825
825
826
827
828
830
828
826
824
822
820
820
820
819
821
821
821
823
825
823
822
819
817
816
814
816
816
818
818
821
819
818
815
814
812
810
810
813
813
818
822
825
826
824
824
824
828
828
830
835
838
841
845
850
851
854
856
857
860
860
865
866
873
877
880
882
884
885
885
885
887
885
885
882
883
886
885
886
885
885
883
880
879
876
874
877
876
878
879
879
877
877
873
873
871
870
867
868
868
870
871
872
872
873
868
866
863
865
864
864
863
869
870
874
876
874
873
871
870
867
865
867
867
869
871
872
871
869
870
869
867
868
869
871
872
874
877
877
880
879
881
882
884
883
884
884
884
886
885
891
892
893
896
896
894
893
888
885
882
883
881
882
880
876
874
871
870
867
864
863
861
859
862
861
859
862
861
862
862
861
859
861
861
865
864
866
866
865
866
865
866
868
866
871
882
894
912
934
960
988
1011
1030
1037
1037
1020
995
966
944
918
888
856
822
805
804
808
819
821
822
819
819
826
834
841
846
847
846
845
845
843
841
844
846
846
845
845
846
843
844
842
842
839
839
843
842
842
841
841
841
840
840
838
837
836
837
838
840
839
843
843
842
838
837
833
832
832
834
834
836
837
836
835
834
833
831
830
831
829
829
829
831
831
831
832
830
830
828
828
825
827
826
828
830
830
831
835
833
836
837
839
841
844
847
850
856
859
864
870
871
876
880
881
881
887
890
895
894
901
901
902
904
904
903
902
902
901
901
900
901
901
903
902
901
900
897
894
891
893
893
894
894
895
895
896
896
896
894
891
890
891
890
889
888
892
892
891
890
890
890
889
886
888
888
888
888
890
892
891
891
888
888
888
887
887
886
890
890
893
894
895
894
893
894
894
893
893
895
896
901
903
906
908
908
910
908
907
903
902
901
903
908
912
914
918
916
915
913
914
911
908
907
906
906
906
904
902
899
897
897
892
886
884
882
881
883
883
885
884
883
881
879
880
879
880
880
882
882
883
885
883
885
884
885
885
885
884
882
884
887
890
897
910
926
951
981
1012
1039
1059
1063
1053
1029
1003
973
946
909
875
845
830
826
830
834
839
843
849
854
856
857
861
862
863
863
865
865
865
865
862
864
866
864
865
865
861
862
860
861
859
861
862
861
864
863
863
862
863
859
855
855
857
857
858
860
860
860
856
854
851
851
850
850
851
851
851
853
853
851
850
844
842
841
839
839
836
837
838
842
843
842
839
837
837
832
832
834
836
837
838
840
840
838
839
835
836
837
840
843
845
851
853
858
860
862
865
867
868
873
875
880
885
892
898
904
907
908
911
911
911
909
910
910
911
911
913
914
913
911
909
908
909
906
904
905
906
906
906
907
908
906
902
901
902
902
898
900
898
900
900
902
902
902
900
899
896
896
896
895
896
897
900
900
894
896
897
896
895
893
891
890
893
895
895
897
896
897
895
892
893
892
890
892
895
895
901
903
905
905
907
908
906
909
910
908
910
910
910
911
916
917
916
913
914
914
911
910
909
908
906
906
904
902
898
895
893
886
882
882
881
882
881
881
884
884
884
881
881
879
878
877
878
877
880
882
884
883
881
880
880
877
880
885
892
905
920
940
967
997
1026
1048
1060
1054
1037
1011
981
951
921
890
859
841
831
829
833
839
846
851
859
860
858
860
856
857
857
856
853
853
852
854
855
857
858
857
858
856
858
855
853
853
850
850
852
852
852
853
853
851
850
850
848
848
845
846
845
846
846
846
846
844
842
841
839
838
836
836
836
838
839
837
837
835
835
832
829
829
828
827
826
827
828
828
828
826
825
822
823
822
823
824
824
826
827
831
831
830
833
831
831
831
834
834
839
841
846
851
855
855
861
863
868
869
875
879
887
889
896
897
900
901
902
901
899
900
898
897
898
900
901
902
902
903
900
896
896
892
893
894
892
892
894
894
893
892
893
891
890
889
888
886
889
891
891
892
891
892
891
888
887
886
885
887
884
885
886
886
888
886
888
886
885
886
880
882
884
885
885
886
888
889
885
885
883
884
883
885
884
889
892
897
902
901
903
902
901
899
903
901
901
902
905
908
910
910
909
909
907
905
902
900
899
896
897
896
896
894
890
887
883
881
877
879
876
878
880
877
878
877
876
874
872
872
869
871
870
873
874
875
875
873
874
873
874
874
874
873
875
878
884
895
907
923
942
964
991
1016
1036
1045
1039
1022
993
961
928
887
850
824
814
813
818
828
838
848
849
851
850
850
849
850
846
851
852
852
852
851
850
850
850
849
850
850
850
849
845
845
845
845
844
845
846
845
847
845
844
843
841
843
842
843
845
844
844
842
840
840
838
836
833
831
830
831
833
833
835
833
834
831
827
824
824
823
825
823
823
822
820
823
821
821
820
820
818
818
821
821
824
827
828
829
831
832
833
833
837
839
842
850
856
859
864
869
871
875
878
882
883
884
890
895
899
902
903
903
902
902
901
901
901
900
901
901
898
900
899
899
894
897
895
894
893
892
892
890
894
894
894
893
890
889
890
889
887
887
887
887
887
889
891
891
890
889
884
883
880
880
881
883
883
884
888
886
885
883
884
884
883
882
883
885
888
889
891
890
890
890
890
890
889
890
897
899
902
904
906
907
907
909
908
906
906
906
907
909
914
915
917
915
911
908
905
900
900
899
896
897
899
897
894
890
887
883
883
880
874
873
871
877
879
878
879
880
879
878
875
877
876
875
874
876
879
880
881
879
880
878
878
883
888
899
917
935
961
988
1016
1035
1044
1039
1019
992
960
932
904
872
841
821
816
817
821
829
833
840
843
845
847
850
850
857
857
858
858
857
855
855
854
852
852
855
854
856
858
857
855
856
853
852
850
849
845
850
848
847
851
849
848
849
846
844
843
843
842
845
844
844
846
843
842
843
840
839
836
834
835
835
836
835
836
836
834
833
831
829
831
830
832
830
833
833
833
832
829
831
829
828
828
829
829
830
833
836
838
839
838
836
838
838
839
844
845
850
856
858
862
865
869
874
878
880
885
888
892
895
901
904
906
906
906
906
906
903
902
902
901
902
902
901
903
904
904
902
900
899
896
896
896
896
897
897
898
898
893
895
893
890
890
888
889
891
891
891
894
892
891
891
890
888
890
888
888
888
890
892
891
890
888
889
888
887
887
886
887
888
890
888
891
893
891
890
889
888
888
889
891
892
896
900
903
903
905
905
907
907
908
906
907
908
908
911
912
915
913
913
909
909
909
904
903
901
902
898
898
897
893
891
887
885
882
877
875
876
877
878
879
877
877
877
877
872
873
874
875
876
878
878
880
881
882
881
880
879
879
880
883
892
903
919
935
954
980
1005
1027
1040
1033
1011
981
947
916
876
843
814
806
805
811
821
830
838
844
849
851
855
859
858
859
858
856
856
855
852
853
853
855
855
858
859
857
855
853
852
852
850
852
853
853
855
855
855
853
850
847
850
847
843
848
849
848
848
850
849
846
843
844
842
843
841
840
843
844
845
843
842
841
837
836
836
835
834
834
834
832
833
833
832
831
831
832
832
831
831
831
833
834
838
841
843
843
846
845
849
849
853
855
860
867
869
876
880
882
885
889
891
895
898
901
904
906
907
910
909
911
910
909
908
907
905
903
905
906
905
905
906
903
902
900
898
896
897
896
895
897
899
899
897
898
894
893
891
888
888
888
889
890
891
894
891
889
889
887
884
882
883
885
885
885
889
890
888
890
887
887
885
884
884
885
884
883
887
890
888
890
888
885
887
889
889
890
894
896
898
900
899
900
902
901
900
900
900
901
903
905
908
910
910
910
909
906
905
900
897
895
892
894
893
894
893
890
888
885
880
878
875
875
875
876
877
878
877
879
879
878
875
876
874
874
873
873
877
877
878
879
879
878
878
882
888
900
914
934
960
988
1014
1031
1040
1033
1013
985
953
925
893
859
827
809
800
804
809
816
822
826
832
837
841
844
850
854
855
856
854
851
850
851
849
850
849
851
852
854
852
853
851
852
850
847
846
847
851
851
851
853
852
852
850
848
847
846
844
842
842
841
842
844
845
843
841
838
834
833
833
834
836
838
839
837
838
836
835
832
831
828
829
828
827
827
828
832
832
831
830
831
831
831
831
832
835
836
838
841
843
845
846
846
847
851
852
853
860
865
869
873
879
880
883
887
888
890
893
899
901
904
903
907
906
907
905
905
904
900
900
899
897
899
900
901
902
899
898
896
894
890
890
891
890
891
892
894
895
893
891
890
887
886
886
884
885
888
887
886
890
887
887
886
884
885
882
885
884
885
885
888
889
888
886
884
884
884
884
884
885
887
889
889
890
890
889
886
887
886
883
884
888
888
890
893
900
899
901
901
899
899
902
901
903
907
905
909
912
913
914
911
910
910
908
903
903
902
901
900
901
898
897
892
890
885
884
881
881
880
879
880
880
877
879
878
877
875
874
876
877
879
879
881
879
879
880
876
877
878
880
880
881
884
888
897
912
923
942
963
988
1011
1030
1038
1033
1015
989
959
926
887
850
818
803
801
805
813
823
831
839
843
846
851
853
855
858
858
859
858
856
857
858
858
858
859
856
857
856
855
854
853
853
856
857
857
857
855
855
854
851
848
846
847
849
851
850
853
851
849
848
846
844
845
843
844
842
843
845
844
845
845
843
840
842
838
837
838
838
837
838
838
839
835
834
834
833
831
831
832
834
834
837
836
838
841
841
841
838
838
839
843
846
848
853
858
861
861
863
867
869
870
875
880
883
891
894
899
903
905
906
906
907
904
904
907
906
906
909
910
910
909
908
905
902
902
897
897
899
902
900
902
901
900
897
898
896
895
893
893
894
896
894
895
895
895
892
890
889
887
886
885
885
889
887
889
889
889
887
885
884
883
882
881
884
883
886
887
885
888
890
888
887
886
885
886
887
888
891
892
893
894
892
891
890
886
889
890
894
897
899
901
904
905
908
909
908
906
905
905
906
909
911
914
915
915
914
912
908
904
901
899
899
899
899
899
898
892
892
888
883
880
876
874
875
872
875
877
877
878
878
875
875
875
872
874
876
878
881
880
881
881
880
881
880
879
881
889
899
909
928
949
971
996
1016
1031
1035
1030
1009
986
961
936
913
882
852
822
806
801
803
810
818
823
832
835
837
843
844
851
855
856
857
859
855
856
856
855
856
857
858
857
857
855
854
852
851
850
850
851
852
855
853
854
854
850
847
847
846
848
846
847
848
849
851
850
849
847
843
843
842
841
842
843
843
842
841
840
839
837
835
836
833
833
834
835
836
838
836
836
833
832
833
829
831
829
833
834
836
838
839
839
841
840
841
839
842
842
844
848
852
853
856
857
866
867
872
875
876
882
885
891
897
900
902
905
907
907
908
906
906
906
906
907
904
903
902
901
902
897
895
891
892
893
895
895
896
896
897
895
895
893
890
890
885
886
888
890
890
890
892
889
887
888
884
884
883
882
884
885
884
887
887
887
887
885
883
884
881
881
882
884
884
886
886
887
885
886
884
883
883
882
884
884
886
888
889
886
889
890
889
893
894
898
899
902
902
901
901
902
904
904
905
907
906
904
903
904
904
903
904
900
898
896
894
892
889
885
883
880
878
876
874
871
870
870
866
865
862
864
865
866
869
868
872
873
873
870
868
866
868
869
870
875
874
874
876
876
885
896
908
924
944
970
995
1020
1031
1030
1009
981
950
914
874
839
811
800
799
803
807
811
814
817
823
829
833
838
838
840
840
841
841
840
839
837
837
839
837
836
836
837
837
837
836
836
836
836
836
838
835
830
830
828
825
827
830
830
831
831
830
830
830
826
824
820
820
820
822
824
827
826
824
822
820
817
815
815
811
815
816
817
820
819
818
816
814
813
811
810
811
813
812
815
817
818
819
818
815
817
815
818
819
823
827
832
835
836
839
842
847
848
850
854
860
865
867
872
877
880
881
880
886
888
885
887
886
886
888
890
889
887
888
883
881
880
882
880
879
882
882
883
885
883
884
883
879
878
875
876
877
877
878
880
880
879
880
877
877
874
876
874
874
875
878
876
876
879
879
877
876
876
875
873
875
878
878
876
879
879
877
878
878
875
876
875
877
876
879
883
883
887
881
883
882
884
886
886
890
890
893
897
898
899
900
901
899
896
898
897
900
904
907
907
908
906
903
902
899
897
896
894
893
894
893
890
889
885
882
880
877
874
872
873
872
872
876
875
876
875
879
876
875
874
873
873
876
876
878
880
880
879
881
883
885
895
908
924
947
976
1004
1027
1046
1051
1040
1017
990
963
938
908
875
842
822
816
823
831
834
831
828
829
831
834
844
851
859
859
860
860
858
858
853
853
853
854
854
857
856
857
858
854
854
852
851
852
850
850
849
850
852
850
852
850
850
852
848
846
844
845
846
846
846
847
848
846
846
844
843
842
840
841
839
840
841
840
840
840
839
836
836
835
832
834
835
835
837
837
839
840
837
835
835
835
833
836
837
839
842
844
849
849
850
851
851
854
855
858
862
864
870
876
883
883
885
889
893
896
903
903
906
909
909
910
913
911
911
911
906
907
906
903
905
907
906
905
905
904
901
900
899
894
893
895
894
894
895
897
898
896
895
896
894
893
890
889
889
888
892
892
892
891
889
888
886
885
885
883
884
886
887
885
888
890
888
888
886
886
884
882
883
884
886
888
888
891
889
889
889
888
886
887
890
892
894
896
899
900
900
898
898
897
898
898
900
903
906
909
911
911
908
906
902
899
899
896
896
895
894
891
889
888
883
882
876
874
872
870
866
868
870
870
872
872
871
871
869
867
866
867
867
868
868
867
871
872
871
871
868
866
867
868
866
872
879
890
908
929
952
980
1010
1032
1041
1034
1012
985
957
929
900
866
836
818
814
816
819
828
837
843
846
845
844
842
841
841
841
842
843
842
843
842
843
844
846
845
841
843
841
839
839
838
835
836
836
838
839
838
837
836
832
832
829
828
828
828
828
829
832
827
826
828
824
824
823
822
822
823
823
823
824
824
821
820
818
817
816
814
814
813
815
815
815
815
814
810
810
808
810
805
811
812
811
814
816
818
819
817
817
818
819
819
821
825
828
832
837
838
841
845
846
851
854
859
861
868
871
874
879
885
884
888
889
889
889
890
889
890
891
892
892
890
890
887
887
884
884
881
884
883
883
884
887
884
884
883
881
881
878
878
878
878
877
878
880
878
877
877
872
869
869
869
866
869
868
871
871
873
871
870
869
866
866
864
863
863
868
866
870
870
870
867
865
867
867
866
865
868
870
871
873
873
872
874
873
873
875
874
879
880
883
884
886
889
886
886
885
883
882
888
888
892
893
893
894
891
888
885
882
877
878
875
873
872
873
870
870
866
865
861
857
856
853
852
851
852
853
854
854
857
857
853
853
853
854
852
853
854
855
854
858
861
867
879
890
910
932
961
988
1012
1025
1026
1011
989
960
934
904
872
837
810
799
798
803
811
821
827
830
831
831
826
822
825
826
830
833
834
835
835
835
833
831
831
827
828
826
825
829
829
831
831
829
828
827
825
823
821
822
823
824
826
826
825
823
820
821
817
814
813
815
815
818
817
816
814
814
812
810
808
807
807
807
808
809
808
810
809
808
806
805
804
801
799
802
801
804
805
807
804
808
807
807
804
806
807
809
814
816
818
821
825
826
828
830
834
832
834
840
845
851
856
861
866
869
871
872
875
875
875
877
879
881
882
884
882
881
879
877
876
875
871
872
873
872
874
877
876
875
874
872
870
868
867
866
864
866
865
870
870
869
867
865
862
863
864
863
862
864
863
862
865
863
865
862
861
859
860
860
861
860
860
863
863
862
861
861
860
861
860
860
860
862
863
865
865
866
865
866
865
866
868
871
873
876
879
879
882
882
880
881
880
880
879
882
882
887
885
885
885
884
879
876
871
871
870
869
868
870
869
866
866
863
858
857
856
853
850
849
853
852
852
855
854
853
853
853
851
850
851
851
852
854
852
854
854
855
856
855
857
861
868
879
892
916
944
970
995
1012
1019
1009
989
959
931
899
867
830
805
792
790
795
802
810
815
821
822
823
825
825
829
829
834
833
833
832
829
827
827
829
827
826
827
830
830
832
828
829
828
826
825
824
825
827
827
828
827
827
824
824
823
823
821
822
822
822
822
823
823
822
821
819
820
820
817
816
815
816
817
815
816
816
816
814
814
811
810
811
809
810
811
811
811
811
811
809
808
810
809
810
814
816
818
820
822
823
822
825
825
827
829
833
837
843
849
855
859
861
864
867
871
870
874
877
881
883
884
887
888
886
888
886
883
878
880
877
879
879
879
878
880
880
879
875
874
873
871
871
873
871
874
874
877
874
873
872
866
867
865
866
864
870
870
869
869
869
868
866
867
865
864
864
865
865
866
867
869
866
866
867
865
865
864
864
864
868
866
870
870
866
869
866
866
867
867
871
872
876
876
882
882
880
879
880
881
878
879
880
883
883
886
890
890
892
890
886
886
883
881
879
879
874
876
877
875
871
869
866
861
860
855
854
853
853
852
854
858
856
855
856
856
854
855
854
855
857
856
858
861
859
859
861
862
868
878
892
916
938
967
992
1012
1019
1011
990
960
929
898
865
830
803
790
788
795
805
808
815
818
820
824
825
830
835
839
841
843
841
839
840
836
836
835
836
836
838
838
839
839
836
837
834
834
830
829
829
831
831
831
832
835
831
830
829
828
824
823
824
823
825
823
824
825
825
824
822
822
821
819
820
818
820
821
822
822
817
817
816
814
814
811
811
811
816
816
818
818
818
817
818
816
813
813
816
819
822
825
829
828
831
832
831
835
834
836
838
844
849
855
858
864
867
872
872
875
877
879
881
884
887
888
889
889
889
889
886
885
883
881
883
880
883
881
880
881
881
880
878
879
876
876
874
873
874
876
875
877
873
872
870
871
868
867
866
866
868
870
868
871
869
868
867
865
864
865
863
864
866
866
867
868
867
865
865
864
862
860
861
862
864
863
864
867
867
867
866
865
864
865
860
866
868
871
872
875
875
876
875
876
874
876
875
876
880
879
879
881
882
882
881
880
882
881
878
878
878
873
874
871
870
868
866
859
857
852
850
847
846
845
846
848
849
848
849
848
845
844
846
847
848
846
847
849
849
847
845
845
844
844
845
847
850
855
866
879
891
908
928
950
971
990
998
994
979
952
926
899
860
826
798
785
783
786
789
792
797
803
811
818
821
824
825
824
826
823
822
821
822
824
823
823
824
823
820
821
819
818
820
820
819
820
822
823
824
823
821
821
815
817
814
813
815
817
818
818
819
815
815
811
809
810
810
813
813
814
813
813
813
812
810
807
807
806
802
803
805
805
808
810
810
810
805
805
802
804
805
807
812
812
814
816
817
817
818
817
815
818
821
825
830
835
843
850
853
856
859
860
863
863
864
869
870
873
874
875
878
878
878
877
873
869
868
869
869
870
871
872
864
865
864
861
861
861
861
863
862
862
863
865
864
865
861
858
857
855
856
856
853
855
855
855
854
853
851
849
847
850
848
850
850
853
854
854
853
851
852
847
847
846
845
842
850
851
850
851
852
851
851
851
850
852
855
857
857
858
859
861
860
860
860
863
863
865
868
868
870
872
872
872
869
865
860
859
857
854
853
850
847
846
845
845
843
842
842
839
837
837
835
835
834
836
836
837
835
834
834
831
832
833
835
835
837
840
841
845
847
853
862
875
891
913
936
961
986
1004
1013
1008
988
962
930
900
872
839
806
776
765
769
781
795
797
793
785
784
785
791
797
809
814
819
821
821
820
817
816
813
813
813
813
813
813
816
817
819
817
817
816
815
813
813
811
809
810
812
813
816
815
813
810
808
807
806
802
801
804
801
807
807
805
803
804
798
795
795
793
793
797
798
798
799
800
798
796
794
791
791
789
789
791
796
798
803
801
802
800
798
800
801
801
802
805
807
811
815
815
813
817
816
819
821
827
830
836
841
848
850
855
855
860
861
862
864
867
869
873
876
878
878
874
870
863
857
851
851
850
852
852
853
855
854
852
847
846
846
843
843
842
842
844
842
845
845
842
842
842
841
839
838
836
833
835
834
834
835
833
835
836
835
835
835
835
835
839
839
837
835
830
826
824
823
823
825
826
826
826
830
831
832
831
831
828
825
829
829
827
831
832
835
837
839
838
837
837
835
835
837
838
842
847
850
851
850
842
833
828
827
824
825
828
827
827
824
823
823
818
818
816
815
816
813
812
813
812
810
810
809
809
808
809
806
804
802
797
797
796
796
798
801
803
803
807
813
822
833
847
867
897
926
953
975
986
983
962
934
904
874
843
807
771
745
729
730
737
742
743
742
745
753
758
762
765
768
769
772
771
772
775
772
772
771
769
766
763
765
766
769
771
769
768
766
764
761
759
758
761
765
764
766
765
762
761
757
756
755
755
757
758
760
759
759
757
752
748
745
748
746
746
748
751
754
754
756
754
750
747
742
738
737
735
736
739
740
741
744
745
743
741
740
737
738
740
738
744
743
748
748
748
751
756
756
758
762
768
772
776
782
788
793
795
796
795
794
794
792
791
793
797
801
805
811
809
808
806
807
806
805
803
802
801
802
802
804
803
803
801
799
796
794
795
795
796
797
797
802
801
801
802
799
793
794
791
788
791
790
794
795
794
794
792
789
787
788
786
786
788
790
794
790
790
793
792
791
792
789
788
788
785
786
787
789
791
792
793
793
791
796
799
797
802
801
803
805
802
799
798
799
805
807
811
814
816
816
815
814
811
808
806
803
799
796
792
792
793
788
788
788
786
785
784
781
779
775
771
771
769
772
774
781
782
782
782
783
781
781
782
779
780
782
782
783
784
786
790
799
814
835
857
887
922
949
972
976
965
938
907
872
843
812
775
743
718
708
708
712
716
721
728
736
741
748
754
757
759
760
760
759
761
763
765
764
761
760
757
759
759
759
757
758
756
755
754
753
752
752
751
754
756
758
757
755
760
758
756
754
755
753
754
754
754
754
754
754
754
752
749
749
748
745
746
745
745
748
747
747
747
745
745
743
740
736
731
727
726
727
728
729
732
736
736
732
729
725
724
726
726
728
730
735
738
737
738
738
738
740
741
744
750
755
761
764
766
771
775
777
779
781
785
787
789
793
798
800
803
804
804
806
808
808
808
810
810
813
807
809
807
807
807
808
805
806
806
805
806
808
808
810
811
808
804
799
797
796
796
795
796
798
798
799
797
797
795
794
792
792
794
798
801
803
801
804
806
805
804
803
803
803
802
803
804
802
800
798
797
795
792
795
796
797
799
801
799
803
805
808
812
813
816
817
817
817
815
816
816
818
819
822
824
823
821
818
819
820
818
813
813
813
812
809
809
807
804
800
796
794
794
796
795
797
797
797
796
793
789
787
789
790
790
789
792
795
796
798
795
794
797
796
796
797
796
798
803
813
832
854
885
916
948
974
986
983
962
929
895
863
831
795
759
725
708
704
708
721
734
749
760
769
777
780
779
777
775
772
769
766
766
766
765
767
767
766
768
769
767
769
768
766
765
765
764
765
764
762
760
762
762
762
764
762
763
761
761
760
759
760
762
760
759
757
758
758
759
757
758
753
749
748
750
750
752
747
746
742
737
736
738
743
741
744
745
745
743
743
741
741
741
742
742
744
743
745
746
751
750
752
753
754
756
759
766
772
777
785
794
798
800
807
807
807
809
809
816
822
823
825
827
827
828
825
827
827
827
828
826
829
828
829
829
827
824
821
814
810
807
806
808
814
818
819
823
823
819
816
816
813
810
813
814
815
816
823
822
820
815
815
814
814
817
819
823
826
826
828
824
822
815
812
808
809
812
816
819
821
821
820
818
818
819
823
827
828
834
837
837
840
838
836
836
836
836
836
837
840
841
842
847
848
847
848
844
842
841
837
834
833
830
832
831
831
832
830
831
829
827
824
820
818
816
816
809
809
809
817
816
815
814
811
807
809
810
813
817
821
823
824
828
828
827
830
836
846
861
886
919
954
990
1015
1022
1004
970
927
881
839
796
758
731
723
728
739
756
773
786
796
798
798
798
797
795
798
799
801
804
805
808
807
804
800
796
794
796
799
802
804
805
804
801
797
793
789
790
792
794
793
802
803
805
805
804
802
800
796
791
790
791
793
795
799
801
799
797
791
785
779
776
779
780
786
787
787
785
780
776
773
771
770
772
772
775
776
777
776
777
775
774
773
775
775
775
777
779
784
787
792
795
798
797
795
795
794
793
797
803
814
824
833
838
841
841
840
841
844
847
855
857
859
864
869
872
871
870
868
866
864
863
862
861
864
863
864
863
860
859
857
855
853
857
859
864
861
864
861
863
862
862
859
859
859
858
859
856
855
855
857
856
854
852
852
854
853
855
855
858
858
856
855
855
854
855
856
857
857
856
856
856
857
859
860
863
867
868
869
868
866
866
869
870
874
878
878
880
878
872
870
869
868
873
874
878
879
883
884
886
885
883
878
870
861
854
851
849
851
854
854
856
856
853
854
850
848
844
847
848
851
855
856
859
858
857
859
855
852
849
849
850
852
859
868
883
903
927
952
976
1002
1018
1027
1021
1001
972
938
903
868
827
790
765
757
761
772
787
808
821
829
831
832
831
831
831
835
837
838
837
835
833
830
829
829
826
829
829
830
833
835
836
833
830
827
823
822
822
821
820
822
823
825
824
825
826
826
827
825
824
824
825
824
823
820
819
817
817
813
810
808
806
806
805
807
806
807
807
806
805
805
804
802
803
801
798
796
798
799
800
801
803
804
805
807
806
805
804
805
805
805
808
812
812
817
822
826
827
832
835
837
841
847
850
858
862
869
876
880
881
882
882
880
880
879
879
881
883
885
889
887
883
878
872
867
865
865
868
874
879
881
883
879
875
872
873
872
873
872
869
871
870
870
872
870
874
876
878
874
869
866
860
859
861
867
869
873
876
875
875
871
868
865
864
862
865
867
872
873
874
876
876
874
875
875
872
873
872
870
869
872
873
877
877
881
882
884
887
891
892
891
892
892
892
892
895
896
898
898
900
902
898
897
898
894
894
889
883
878
875
870
868
867
871
871
874
870
868
865
864
862
862
860
862
865
867
869
870
868
865
869
865
863
864
865
866
868
871
876
882
882
884
887
896
906
924
945
969
997
1020
1040
1047
1033
1006
972
934
899
859
819
787
768
768
777
793
815
827
834
839
839
837
840
841
847
853
855
860
862
859
855
852
850
843
840
836
838
839
845
849
851
850
850
846
842
838
837
837
842
846
848
851
852
852
850
847
843
838
835
835
834
833
832
837
835
835
833
833
828
829
830
830
830
830
830
831
832
830
831
830
828
828
825
823
823
822
824
827
831
834
833
830
823
818
813
813
818
828
832
839
840
841
842
842
846
851
856
861
867
872
877
883
887
889
893
899
903
913
914
914
917
913
906
900
893
893
894
896
897
898
894
896
894
894
897
898
899
899
897
896
893
894
894
894
895
895
895
895
893
890
891
894
898
898
897
898
896
897
894
892
888
886
885
882
882
882
881
885
890
893
894
894
892
891
888
888
890
890
892
892
894
897
899
901
903
902
904
905
905
905
908
908
914
913
913
912
908
905
899
902
905
906
906
909
908
911
910
911
907
905
903
899
897
892
888
889
889
888
888
889
888
885
885
884
886
888
889
893
894
892
888
882
878
871
871
871
875
879
882
885
892
904
918
936
956
984
1010
1035
1051
1056
1044
1020
988
949
913
885
843
809
788
782
787
793
805
820
832
842
852
858
865
866
870
868
867
862
858
860
864
865
866
865
862
857
856
857
855
858
858
858
862
862
861
861
859
859
859
858
859
857
857
858
861
860
859
863
862
860
857
851
845
839
836
838
840
843
849
852
852
852
850
845
841
838
837
838
840
842
840
841
843
841
843
841
841
839
836
834
836
835
839
843
847
849
849
844
842
842
843
843
846
851
854
861
867
869
874
878
880
884
887
892
895
902
905
909
917
920
922
924
926
926
924
924
920
919
921
917
915
916
917
918
918
915
915
912
911
911
911
913
913
914
913
912
908
906
904
908
909
912
914
915
917
916
916
913
912
911
908
911
909
912
911
910
910
909
902
901
898
899
903
907
907
908
908
907
906
906
905
906
906
907
906
910
913
915
918
922
921
921
919
913
910
908
906
911
918
923
928
932
937
936
934
931
926
925
922
923
926
930
930
931
931
931
928
924
921
919
914
912
910
907
901
898
896
892
892
893
894
897
897
895
895
898
900
901
902
903
898
896
897
897
897
899
901
901
907
910
918
929
945
962
984
1010
1034
1057
1070
1075
1061
1036
1001
969
934
898
860
825
802
792
797
810
822
833
843
846
847
850
851
855
862
868
874
878
879
880
880
876
874
871
872
871
876
875
877
878
877
878
880
881
882
879
879
876
870
865
857
859
860
865
867
868
870
871
867
865
862
860
859
862
862
862
866
865
863
860
861
859
858
859
858
859
860
860
859
853
848
843
841
842
845
848
853
855
858
854
851
848
843
844
845
849
854
860
864
868
870
876
882
888
889
893
894
897
901
908
915
921
928
929
929
927
928
931
932
930
927
923
924
920
923
925
926
927
926
926
927
925
925
923
923
922
923
925
926
927
928
926
925
920
917
915
916
918
920
923
926
925
921
915
909
904
904
906
912
917
921
924
925
920
915
913
914
909
910
915
919
919
923
923
921
920
921
919
922
923
923
924
922
921
922
921
922
922
928
927
931
931
929
929
931
931
933
934
936
936
933
935
933
931
930
930
930
931
931
933
933
930
927
922
915
910
905
901
898
898
897
899
899
902
902
901
902
903
904
903
907
906
907
910
906
908
909
908
911
913
920
935
953
979
1008
1038
1065
1084
1088
1075
1048
1012
976
943
910
873
835
808
797
795
799
811
826
838
849
855
862
867
871
879
885
887
883
884
881
881
880
877
880
881
880
883
883
882
882
881
880
879
878
879
878
878
881
880
880
881
879
879
876
877
877
872
871
875
879
882
880
877
871
865
864
864
861
866
865
867
867
866
863
857
854
856
854
855
855
855
860
857
857
856
853
850
847
846
846
844
846
847
851
852
854
856
858
858
861
864
864
863
861
863
866
869
874
881
886
889
892
898
901
902
906
910
914
919
919
920
924
923
928
931
933
933
933
935
933
934
935
935
935
932
934
931
929
925
924
923
924
925
926
927
927
929
929
925
927
927
927
927
925
924
920
918
914
913
914
916
917
916
917
919
917
916
915
915
918
916
917
915
918
918
916
918
919
918
917
917
918
916
916
917
921
922
923
923
925
926
927
927
927
926
921
928
932
934
935
936
936
937
932
930
927
926
928
931
933
935
933
933
932
933
929
928
929
928
927
922
923
920
916
913
904
902
899
899
903
907
911
910
910
910
909
905
901
898
894
897
900
902
909
911
913
913
917
927
941
962
986
1013
1045
1068
1082
1078
1060
1028
990
951
914
879
843
817
804
803
810
821
832
840
846
853
856
860
866
871
876
882
883
881
883
882
881
879
879
878
880
885
885
883
883
878
875
871
871
873
874
876
878
881
884
884
883
879
876
867
861
854
859
863
868
871
872
869
866
863
859
857
857
857
859
860
861
860
858
855
851
851
851
851
850
853
850
853
856
857
858
856
856
850
848
846
843
847
849
853
856
855
856
857
857
862
865
867
868
871
872
876
885
888
896
902
905
909
912
917
926
929
933
935
934
935
934
932
931
933
934
931
933
936
936
937
937
937
938
934
930
928
922
917
915
916
917
923
926
924
925
922
919
920
918
918
914
917
919
917
918
921
922
922
921
920
920
918
918
917
916
918
917
918
921
924
927
926
925
922
917
912
908
909
910
911
915
914
915
918
918
922
922
924
925
927
929
933
934
935
935
935
934
934
936
937
941
943
946
946
945
944
944
936
930
924
923
923
921
920
917
914
907
904
904
903
902
903
901
901
902
903
905
908
909
912
911
912
911
910
908
909
908
910
910
915
915
915
915
923
935
952
971
997
1029
1055
1075
1081
1071
1044
1008
969
933
896
854
816
795
789
794
806
820
832
845
854
858
864
871
877
880
880
879
881
881
881
880
882
882
881
880
877
876
878
878
879
880
882
882
879
878
877
873
868
870
871
873
875
875
878
876
876
875
873
870
868
866
864
865
867
869
869
870
870
871
869
869
866
860
860
860
860
862
863
863
861
856
850
847
844
843
846
848
846
847
849
850
850
851
850
852
852
851
854
858
861
864
862
871
873
876
878
879
882
889
898
909
916
922
924
923
920
916
915
914
922
926
934
938
942
940
937
935
931
930
929
927
928
927
925
925
925
925
926
926
927
927
920
918
917
916
917
923
926
930
931
929
927
921
919
912
910
908
909
911
917
921
923
921
921
916
916
913
913
912
916
919
920
923
920
919
918
918
917
921
921
925
928
928
928
925
923
920
920
921
922
924
924
925
927
927
930
932
934
932
931
932
930
930
934
936
942
943
943
940
939
936
938
936
936
934
935
934
932
927
923
917
911
906
903
900
899
900
899
900
903
905
908
910
908
907
901
901
899
902
901
905
908
913
915
918
916
914
913
915
922
935
953
980
1010
1040
1064
1072
1066
1042
1012
980
952
918
883
853
834
829
837
847
852
851
850
849
854
859
864
872
882
886
890
891
888
885
879
874
873
870
870
871
877
877
878
879
879
877
876
875
873
873
872
872
871
874
875
878
876
876
873
872
869
870
870
872
873
877
879
881
877
875
870
866
858
854
851
849
848
854
856
860
859
857
858
857
853
852
850
850
849
850
852
855
857
858
858
854
855
855
854
857
862
867
872
877
878
876
875
872
873
874
876
882
891
897
905
914
916
916
916
918
919
922
926
927
931
934
936
938
935
929
927
923
921
921
924
925
928
928
930
927
922
917
913
910
910
911
911
913
917
917
918
918
919
918
919
917
915
912
910
908
910
911
913
914
917
919
920
919
916
913
911
909
912
913
914
918
913
914
908
906
905
905
907
909
912
914
914
914
910
909
910
912
914
918
923
926
930
932
934
936
933
931
930
930
930
930
933
937
938
941
941
940
933
927
922
918
915
916
913
911
914
912
911
908
906
902
901
902
903
901
899
898
899
900
898
899
899
900
902
902
904
905
904
901
902
900
901
901
901
902
908
917
926
939
955
973
997
1023
1044
1065
1072
1065
1044
1012
976
942
901
864
836
823
827
837
845
850
851
853
853
855
859
865
873
879
881
884
883
881
879
876
873
872
871
873
876
880
880
882
880
881
878
877
871
872
869
869
872
874
879
883
883
879
874
868
860
858
856
858
862
864
861
860
858
857
857
860
859
858
854
853
850
850
853
855
855
855
854
851
849
847
846
843
844
845
844
847
846
848
845
848
849
849
849
850
852
856
857
856
857
860
863
866
870
873
873
871
876
879
885
895
900
902
909
911
914
912
913
917
915
920
920
925
923
923
921
920
920
917
916
917
919
921
921
921
916
916
913
913
911
909
912
912
915
913
912
911
906
902
893
894
893
897
901
905
911
909
906
904
898
893
893
892
894
896
902
904
904
903
899
897
893
896
897
899
902
902
901
901
901
904
907
908
908
910
913
914
916
914
913
911
911
912
916
919
921
927
923
920
917
915
913
912
913
913
913
915
913
910
909
906
901
901
898
896
900
899
898
900
894
890
886
883
879
880
882
886
890
890
892
890
889
884
882
878
881
883
884
884
888
896
908
923
940
961
981
1000
1021
1036
1043
1042
1028
1007
982
956
924
889
849
817
801
802
811
821
826
833
836
840
847
850
855
856
858
859
864
865
863
866
866
866
864
861
858
856
856
856
858
861
863
864
864
862
861
860
859
857
858
857
861
862
864
866
865
864
859
854
847
846
847
848
851
850
849
847
843
841
837
835
840
839
841
842
841
841
841
840
840
838
835
834
833
831
834
836
838
839
843
845
845
841
838
834
831
833
836
840
843
848
853
856
858
862
865
867
871
873
877
877
877
883
884
888
894
897
897
900
902
904
906
905
906
907
908
908
910
909
909
908
908
905
900
900
899
902
900
907
908
908
901
898
890
887
886
888
892
892
895
898
897
894
892
889
890
890
891
888
889
892
892
892
892
894
896
896
897
897
895
892
889
888
888
889
894
897
900
901
902
900
896
894
893
892
896
901
905
907
908
904
903
902
902
905
909
917
920
919
920
919
912
908
903
897
897
898
900
899
900
897
893
893
886
882
880
878
878
881
883
883
884
886
884
881
879
879
878
878
879
879
880
877
879
879
883
882
883
885
889
896
906
917
929
953
982
1008
1031
1045
1046
1030
1006
978
946
915
878
840
809
797
799
810
818
822
822
822
826
829
839
846
851
856
860
860
860
860
858
858
859
859
860
860
862
865
866
866
862
853
848
846
844
842
843
847
850
852
853
856
855
850
848
843
839
837
840
839
840
841
842
844
843
842
841
839
835
837
837
837
838
841
842
844
842
840
837
837
833
826
820
819
815
819
821
824
828
830
827
823
820
820
821
825
827
831
837
841
842
846
852
853
856
863
867
874
880
883
884
881
883
882
886
889
894
894
897
896
898
900
901
902
902
902
901
898
897
895
895
894
895
896
898
898
899
898
898
896
898
895
898
896
898
899
899
901
897
894
888
884
878
874
871
873
877
881
884
887
888
889
886
887
885
882
883
882
882
883
882
887
890
889
888
888
888
885
884
885
890
897
899
906
907
903
894
886
880
880
883
892
900
907
909
909
906
903
903
902
900
904
901
905
904
906
904
905
903
899
897
892
891
885
884
881
882
880
878
877
873
873
871
874
875
876
879
877
880
884
882
884
883
878
875
867
862
862
864
870
875
880
885
892
901
918
941
970
996
1020
1037
1039
1028
1006
982
955
925
886
846
812
794
791
798
808
818
826
834
839
847
850
852
852
848
847
845
847
851
854
857
863
866
863
856
848
841
840
841
843
847
849
852
855
856
853
851
850
847
844
844
847
849
847
848
849
849
848
850
846
844
841
842
841
844
843
843
840
840
844
846
844
839
832
826
823
820
821
823
827
826
825
826
823
820
818
817
818
822
821
823
825
828
826
825
825
825
825
829
830
834
836
838
836
835
837
838
843
849
854
862
868
871
874
876
877
879
879
880
883
889
893
896
900
902
903
905
906
905
900
897
900
896
895
894
895
899
901
901
901
901
896
896
893
892
891
891
892
893
895
892
892
892
890
890
890
887
887
886
886
886
888
889
893
892
891
891
891
886
884
884
885
884
883
886
889
890
889
888
887
885
885
888
888
890
893
892
896
900
899
901
899
897
896
897
898
899
900
906
908
912
914
918
915
910
904
901
898
897
896
896
898
901
902
900
897
892
886
882
878
881
879
878
878
873
870
869
869
870
874
874
873
873
875
878
880
881
881
882
878
877
875
875
880
886
895
906
921
942
967
995
1019
1036
1043
1034
1012
984
956
931
901
868
833
807
798
797
801
808
818
825
830
835
840
841
842
847
850
850
851
850
852
851
852
854
856
855
857
856
854
857
858
856
858
856
858
854
847
844
841
844
847
849
850
847
844
838
839
839
841
840
842
841
837
835
830
829
830
835
836
835
835
835
831
833
828
826
824
822
822
822
821
823
825
825
826
821
820
818
819
818
818
819
821
823
826
828
826
829
832
831
832
832
833
836
838
843
850
860
866
866
868
872
867
872
878
885
889
894
895
895
898
896
895
897
898
899
900
904
903
903
897
895
890
889
889
890
885
885
884
881
883
887
890
890
890
890
885
883
882
882
882
884
883
885
888
889
887
891
892
895
894
893
892
890
888
883
884
883
885
885
883
880
877
879
878
882
882
885
885
885
885
883
885
888
885
889
893
896
898
899
900
903
901
903
901
900
899
898
901
906
910
911
914
912
908
900
893
889
890
888
890
887
884
881
876
873
872
871
872
872
872
869
870
870
870
869
867
871
872
873
874
875
871
870
871
868
868
871
874
876
879
883
887
896
907
924
943
965
990
1014
1033
1045
1043
1023
996
964
934
903
873
841
812
796
793
798
806
811
816
819
824
828
832
837
842
847
852
857
858
857
857
855
854
851
850
849
847
848
849
849
846
846
843
843
839
837
833
834
838
844
845
848
844
844
844
843
839
837
836
835
837
838
840
841
841
839
840
839
839
838
839
837
838
835
831
826
821
818
814
813
813
812
812
809
811
812
815
819
817
818
818
818
818
818
816
819
820
824
823
827
829
833
838
840
843
846
847
853
857
863
870
881
883
885
888
886
886
883
883
887
889
893
896
899
901
901
899
901
896
895
893
886
888
886
888
891
891
890
892
887
888
886
883
884
888
889
889
890
889
888
885
884
885
884
883
884
884
885
887
889
888
887
886
885
883
882
882
883
887
889
893
898
898
894
888
879
868
863
862
867
876
882
888
892
893
893
891
887
888
889
890
894
898
899
900
900
900
901
901
899
903
905
906
908
908
909
908
905
898
892
885
880
876
871
868
867
866
868
868
871
870
869
866
864
862
865
863
866
866
867
866
866
867
866
864
866
865
869
871
873
872
882
887
896
910
927
953
982
1009
1026
1028
1010
981
948
917
878
841
807
790
784
786
794
799
807
816
822
832
841
847
848
849
847
841
837
833
830
834
839
840
842
841
838
837
833
831
832
829
833
835
837
837
839
839
838
838
838
838
839
839
841
842
841
835
833
827
822
822
820
822
822
822
819
816
814
815
815
811
807
808
807
812
815
817
819
820
818
817
813
811
810
812
813
810
809
803
803
802
802
805
811
811
813
812
810
810
813
817
822
826
836
842
846
848
853
856
860
864
868
871
878
880
883
882
880
880
881
882
883
882
878
877
876
874
873
874
875
872
871
870
869
871
873
874
873
872
871
869
867
868
869
869
869
871
871
876
874
875
871
867
861
860
858
860
859
860
861
859
860
859
863
865
867
871
867
864
862
859
857
857
857
860
862
862
866
866
866
868
869
872
873
876
878
881
881
880
878
878
875
877
874
875
875
877
877
880
881
882
883
882
878
879
875
876
875
874
872
869
868
865
863
860
862
861
861
860
858
853
847
845
843
841
840
839
840
840
843
845
844
843
843
844
845
846
848
849
851
854
854
854
860
867
882
902
927
957
986
1006
1022
1023
1010
984
954
923
894
860
824
790
768
761
769
780
784
786
780
781
787
796
805
815
825
828
831
831
832
830
831
828
826
822
822
819
818
816
813
814
815
815
816
818
818
824
823
823
822
818
816
813
811
814
816
815
814
815
811
811
809
810
810
809
810
808
807
804
802
802
800
798
799
799
795
795
794
790
787
789
792
795
794
796
798
797
795
794
792
791
793
792
790
789
788
790
795
800
807
811
811
811
808
808
807
808
813
822
829
832
835
837
841
843
849
852
856
859
861
861
866
866
868
865
866
865
864
864
865
867
867
871
871
869
867
868
861
863
858
855
851
850
850
856
859
861
859
854
852
850
849
851
849
853
855
860
860
858
860
858
856
856
857
857
861
862
861
862
863
860
857
856
856
856
858
859
857
853
849
850
853
856
859
863
866
866
866
867
868
870
872
873
875
876
875
876
877
880
883
885
888
886
887
883
880
875
870
867
861
863
861
864
864
866
865
864
863
859
855
851
846
845
844
845
849
852
857
857
859
857
852
852
848
847
846
850
853
857
857
858
861
862
867
876
887
905
926
953
984
1013
1033
1036
1020
987
945
902
855
807
772
760
767
779
791
796
798
804
810
816
822
828
832
835
835
833
836
832
835
835
835
833
830
829
828
826
829
832
836
839
840
838
837
838
838
836
835
836
836
839
842
841
841
839
833
826
822
820
822
826
826
829
830
830
831
831
828
827
825
826
822
823
825
827
826
825
824
825
823
821
820
819
819
819
820
821
822
821
826
825
826
825
828
825
827
828
829
832
833
836
839
842
844
849
852
855
857
860
868
872
881
885
891
894
894
899
900
902
904
903
905
907
908
911
912
912
910
911
909
909
907
905
905
908
907
909
911
909
909
908
908
907
904
906
905
905
906
907
907
911
911
909
910
910
907
907
908
907
909
909
909
912
910
911
911
908
907
906
908
909
910
910
914
915
913
915
912
911
913
911
912
914
916
919
921
922
925
926
926
929
928
930
928
930
932
931
933
935
934
934
933
935
936
935
936
935
936
937
937
940
938
932
932
932
928
925
923
922
922
920
921
919
917
914
911
910
909
908
910
909
910
911
915
914
914
916
915
915
912
912
915
917
920
925
932
946
962
984
1011
1039
1062
1084
1098
1097
1079
1047
1016
986
949
909
870
839
821
816
820
830
839
852
862
872
880
887
890
891
892
891
892
891
894
896
895
899
897
897
897
897
894
896
895
895
897
895
898
893
891
890
888
888
884
884
883
882
886
887
887
886
888
886
884
881
883
880
882
878
878
875
875
876
873
873
871
868
865
866
868
865
865
863
863
861
859
858
856
855
853
854
855
854
855
854
856
854
852
850
849
849
850
850
851
851
855
859
866
871
875
877
880
885
885
889
891
895
899
905
911
914
919
920
919
923
923
924
926
928
931
930
931
933
931
930
929
926
925
923
922
921
923
922
923
925
921
919
917
918
915
914
913
916
917
917
919
921
921
920
920
917
916
915
915
913
913
915
916
915
916
916
915
914
914
912
913
914
915
915
912
915
914
914
913
912
909
913
915
917
922
923
926
926
926
925
924
922
922
923
927
929
934
935
938
936
932
928
924
922
921
919
918
916
915
913
912
912
908
906
904
902
898
898
896
895
897
898
899
898
896
896
896
895
892
893
893
896
896
897
900
901
901
897
901
901
906
915
929
947
970
996
1024
1050
1069
1080
1074
1055
1024
996
970
943
913
878
849
827
812
811
816
822
824
832
842
849
859
866
871
875
875
873
870
871
867
866
866
868
868
869
870
871
871
872
870
868
869
867
867
866
869
867
869
870
868
866
865
864
858
857
858
858
858
857
858
856
855
855
853
852
847
849
847
847
847
849
850
850
849
848
845
839
840
837
838
838
837
837
837
837
836
837
834
831
829
828
828
829
829
832
834
834
835
834
834
836
838
840
840
844
849
856
861
866
872
874
879
882
884
886
888
894
895
900
905
905
907
904
906
906
906
906
907
906
904
905
904
907
905
904
902
902
902
899
900
900
901
903
904
903
904
903
901
899
899
895
896
895
900
901
900
901
901
901
899
898
896
894
896
895
894
895
892
897
894
895
893
893
893
887
891
890
893
894
896
896
895
894
895
892
893
892
892
891
894
896
899
901
904
903
903
903
905
901
900
902
905
905
909
909
911
912
912
912
911
909
907
908
905
903
905
903
901
897
897
893
890
886
882
883
882
882
881
880
879
877
875
875
872
871
871
872
871
873
875
873
874
873
873
872
872
873
874
876
880
893
909
931
962
993
1022
1047
1061
1054
1029
999
966
938
906
873
840
818
810
810
814
821
833
839
849
852
853
850
848
849
849
847
846
848
850
847
849
850
852
854
851
851
847
846
844
843
844
844
845
843
846
847
844
845
845
842
842
840
840
842
840
843
842
843
841
839
837
835
830
826
829
830
831
831
830
829
825
824
824
819
816
816
813
814
811
816
815
816
813
810
810
808
807
805
805
805
805
807
811
814
812
814
815
814
815
816
818
821
822
829
832
838
841
844
846
850
856
859
861
868
872
877
881
883
885
884
886
883
882
882
883
883
884
885
884
885
886
884
880
879
878
877
877
878
876
876
876
878
877
877
875
875
874
871
871
868
873
874
875
876
874
875
873
871
871
868
870
867
868
867
871
872
872
871
870
870
869
866
868
867
867
869
869
871
869
870
868
868
870
872
872
874
878
879
882
884
884
883
883
882
881
882
881
883
883
888
891
893
891
888
887
882
877
877
873
872
870
871
869
867
866
863
858
854
850
849
847
850
849
851
852
854
852
851
852
853
849
852
852
851
852
855
854
858
855
855
853
853
858
866
878
895
918
946
975
1002
1024
1031
1026
1003
975
946
918
888
854
823
801
792
791
797
805
810
817
822
823
824
825
828
826
829
826
829
826
825
828
826
827
827
826
825
827
828
827
827
827
825
824
824
823
823
821
822
826
829
829
827
821
819
819
819
817
817
818
816
818
819
818
815
811
807
808
807
805
808
809
808
811
813
813
812
810
808
806
804
803
803
803
802
803
804
803
803
798
798
798
797
796
797
799
799
802
803
804
804
800
801
801
803
807
812
819
822
830
835
839
843
847
849
854
858
858
865
867
871
873
878
877
876
878
873
871
874
872
872
872
873
876
876
875
875
873
871
870
870
870
870
871
871
871
873
872
869
870
868
868
865
865
864
867
866
869
870
868
869
867
864
863
862
859
860
862
863
863
865
866
867
866
864
861
862
863
861
866
865
866
868
866
866
867
866
865
866
867
871
875
877
880
883
881
880
879
879
879
877
880
880
882
886
885
888
886
885
881
876
872
866
864
863
863
862
861
862
858
856
855
852
851
849
845
847
847
847
847
849
847
848
850
848
845
849
846
847
847
848
850
853
852
852
855
856
863
875
894
917
948
980
1008
1025
1026
1006
978
945
907
870
834
807
788
784
786
793
802
805
808
813
815
816
817
818
822
826
825
825
825
824
824
824
823
822
820
821
820
823
822
823
823
824
818
819
818
816
815
815
815
819
818
820
817
817
816
814
813
812
809
810
810
813
813
814
811
809
809
806
803
802
800
800
801
800
799
799
794
792
792
792
793
790
789
789
789
790
792
793
795
792
793
792
792
793
794
795
796
796
797
804
805
811
811
813
814
817
821
821
830
835
844
846
851
853
858
859
859
862
862
865
866
868
871
874
874
872
871
866
867
867
866
865
867
867
867
868
865
864
861
858
860
860
857
856
855
856
856
859
859
855
854
853
850
849
851
851
850
851
853
854
854
851
854
854
848
851
848
848
850
851
853
856
854
854
852
849
850
848
851
850
850
851
852
856
858
857
858
857
858
858
861
861
863
866
866
868
868
867
868
867
868
868
868
869
870
871
870
872
870
869
867
863
858
855
854
850
848
848
845
846
842
839
838
837
835
837
834
832
833
835
834
836
837
837
835
833
834
835
834
835
838
839
841
843
842
848
850
859
870
886
908
933
962
987
1006
1014
1006
984
958
929
903
876
844
810
783
771
772
780
784
786
784
782
783
789
794
801
808
814
815
818
815
815
812
811
808
807
807
807
808
811
811
812
813
811
811
810
809
808
805
804
807
808
807
807
808
806
805
805
804
800
798
799
798
801
801
804
802
800
799
795
791
787
787
787
790
789
790
792
791
793
790
786
785
782
783
785
784
784
785
785
785
785
786
783
785
782
784
782
782
783
785
787
785
788
788
790
790
791
793
796
800
806
810
814
815
818
821
826
827
831
836
840
843
847
849
850
854
854
855
853
852
853
852
850
851
850
848
849
848
847
845
845
844
842
843
843
843
844
845
845
846
846
845
843
842
840
839
838
837
842
842
842
844
843
839
836
834
831
830
830
828
828
831
835
839
840
838
840
838
838
834
833
833
835
836
837
837
836
839
840
842
843
844
846
844
846
845
846
847
849
849
850
853
856
856
853
854
852
850
847
844
842
839
832
831
829
826
825
826
826
826
824
824
821
821
818
817
816
816
817
817
818
817
817
817
815
817
817
817
815
816
817
819
821
824
828
833
847
859
878
901
927
956
980
997
1004
995
977
949
919
887
856
821
785
752
737
734
743
754
757
761
763
769
774
782
787
792
792
792
793
794
794
793
793
793
794
790
789
788
788
791
791
791
794
795
793
792
791
790
788
787
786
785
786
787
784
787
788
789
789
785
783
781
779
780
782
784
785
783
783
780
781
779
778
777
779
779
780
778
780
779
777
777
775
771
772
771
769
771
770
770
770
772
774
775
774
775
776
775
778
779
782
781
788
793
794
796
798
802
805
809
813
819
823
827
832
834
839
841
841
842
839
841
844
843
848
852
853
853
852
852
851
846
846
847
848
849
850
852
853
853
851
847
843
843
838
843
841
842
844
847
848
847
846
845
844
843
842
842
839
841
842
843
844
845
846
846
845
844
844
842
841
842
841
842
844
844
846
846
844
844
844
843
842
844
846
844
848
846
847
848
848
848
848
850
852
853
857
857
862
863
864
864
863
861
860
861
861
864
868
868
868
870
870
869
865
862
860
858
853
853
853
852
851
850
847
843
841
838
835
836
834
833
834
836
836
840
840
840
838
836
836
835
836
836
839
841
845
845
846
847
847
853
863
876
895
919
949
978
1003
1024
1028
1023
1002
973
942
911
883
850
812
782
767
769
776
784
785
786
786
789
800
808
815
821
823
824
824
822
819
820
817
