1015
1015
1015
1015
1015
1015
1015
1015
1015
1015
1022
1024
1021
1019
1022
1024
1028
1028
1026
1023
1024
1023
1024
1025
1022
1016
1015
1013
1015
1011
1009
1004
1002
999
1003
998
995
993
989
991
991
989
988
984
979
982
983
979
980
977
977
979
978
981
981
973
975
976
976
977
975
972
975
975
978
978
978
975
974
977
978
977
977
972
970
973
978
977
978
973
973
973
976
977
974
972
972
972
976
979
977
973
973
975
979
977
977
974
972
976
981
980
977
975
977
977
978
979
978
975
973
974
979
978
975
971
973
974
975
978
976
970
970
974
976
975
973
969
970
967
971
973
970
967
967
969
971
968
970
967
966
967
971
970
970
967
967
969
971
970
966
967
964
967
969
971
969
965
966
969
970
970
967
965
965
967
967
968
967
965
962
966
969
971
967
964
966
966
968
969
967
965
967
967
967
967
967
966
965
965
970
971
969
967
965
968
970
971
970
967
967
970
972
971
971
963
965
970
970
971
969
966
965
968
971
972
971
965
966
967
968
975
970
971
970
973
976
979
977
975
976
979
985
985
985
983
983
984
988
984
980
978
978
978
977
976
975
973
972
975
978
976
975
971
976
979
979
980
979
972
971
968
969
967
964
966
966
968
972
972
964
965
963
965
967
969
965
962
963
967
969
967
966
966
961
966
968
970
966
965
964
965
968
968
969
965
966
973
976
981
985
989
991
989
977
963
954
943
927
916
915
930
956
988
1012
1015
981
921
879
870
886
918
947
963
966
967
969
970
975
974
974
975
977
979
984
982
984
980
981
982
986
986
986
983
983
984
989
989
987
983
984
986
991
990
988
985
985
988
988
990
989
987
988
990
992
992
987
990
988
991
996
998
999
996
995
997
998
1001
999
1000
1000
1000
1002
1005
1004
1003
1002
1004
1009
1009
1007
1010
1008
1012
1016
1018
1017
1016
1018
1022
1023
1025
1025
1023
1023
1026
1029
1029
1024
1022
1022
1020
1026
1026
1022
1018
1017
1016
1017
1013
1011
1008
1004
1005
1005
1001
998
994
991
991
991
988
988
982
984
984
986
985
981
980
980
981
982
981
979
978
974
977
980
979
977
975
975
976
979
980
975
971
975
975
977
977
976
971
971
973
977
979
975
972
972
973
976
975
974
971
973
973
975
977
974
971
972
974
977
978
976
973
974
976
980
980
976
976
976
976
979
979
977
977
975
978
980
981
978
976
973
975
980
978
976
973
972
975
976
977
973
971
970
974
977
976
974
972
972
974
976
976
973
971
970
971
974
973
968
966
968
968
972
971
969
967
967
971
974
973
970
968
968
971
975
972
971
970
970
972
973
974
970
970
968
970
971
972
967
967
967
967
972
969
969
968
969
969
971
974
970
969
966
970
971
971
970
965
965
967
971
972
970
967
962
966
970
970
968
965
965
967
969
970
968
967
964
970
969
968
969
968
967
970
973
973
971
970
966
972
975
973
971
967
967
971
975
973
970
969
967
970
973
974
972
970
970
972
978
976
975
975
976
981
985
984
982
982
983
985
988
989
989
986
984
985
987
987
981
980
977
978
980
979
976
975
977
975
982
980
978
976
977
979
982
982
979
975
968
970
972
969
968
967
968
971
972
973
968
969
968
971
973
972
969
968
968
970
974
973
970
967
967
970
974
974
971
970
969
972
973
975
975
975
976
979
984
988
990
994
996
991
981
974
963
953
943
932
923
923
932
943
965
994
1019
1029
1017
983
938
904
890
889
898
907
924
951
969
972
974
974
976
978
983
982
982
978
981
985
988
988
989
987
987
991
993
993
991
990
990
993
993
998
993
991
990
994
998
996
994
991
991
993
996
996
995
994
993
996
1000
998
997
997
993
996
1002
998
997
999
999
1001
1004
1003
1003
1000
1001
1001
1005
1008
1002
1003
1002
1006
1010
1011
1009
1008
1007
1013
1015
1016
1016
1016
1014
1020
1023
1024
1023
1021
1022
1024
1029
1029
1028
1026
1026
1030
1034
1032
1030
1029
1032
1036
1040
1038
1035
1031
1034
1033
1033
1031
1028
1023
1021
1023
1023
1020
1017
1011
1007
1008
1010
1005
1002
996
997
998
999
996
994
994
993
995
994
995
989
990
989
993
994
992
991
989
987
988
990
992
987
986
984
984
989
987
985
984
984
989
990
985
987
986
985
985
990
989
988
986
985
985
986
987
985
981
981
983
986
983
981
980
981
983
987
986
985
984
981
983
986
987
985
984
982
986
990
988
984
984
982
981
987
985
984
979
979
981
983
982
978
977
978
982
983
982
978
976
977
980
983
981
980
978
975
979
979
978
977
975
973
973
975
974
973
970
971
973
977
975
974
971
972
974
974
972
970
970
969
973
975
973
971
966
968
970
972
970
968
967
965
970
973
970
969
966
968
975
970
967
968
966
971
973
972
969
966
969
968
969
971
969
966
966
966
970
971
966
965
966
968
972
971
969
964
966
970
970
969
968
967
963
970
974
971
968
965
966
967
970
972
968
965
966
968
974
971
970
968
968
974
977
974
973
974
976
980
984
977
979
975
977
981
985
986
984
979
979
978
981
977
976
973
971
974
975
978
976
973
976
975
980
979
979
978
977
977
975
970
967
963
963
968
970
968
968
965
966
968
970
967
966
966
967
967
970
972
970
966
966
968
972
970
968
965
967
968
972
967
968
968
969
972
975
974
973
975
978
984
990
996
994
991
977
966
962
951
939
919
906
905
915
935
957
981
1005
1019
1017
990
949
906
888
887
895
904
917
935
952
964
970
970
970
971
972
975
977
977
974
975
978
976
984
984
981
981
978
985
986
988
984
981
985
987
989
991
987
983
987
988
990
991
988
985
985
989
992
990
991
986
988
990
991
995
990
987
989
990
994
994
992
990
992
993
998
997
994
995
994
998
999
1000
999
998
998
999
1004
1004
1002
1000
1002
1005
1007
1008
1007
1006
1008
1011
1014
1016
1016
1013
1016
1019
1020
1020
1021
1021
1022
1023
1028
1025
1021
1020
1022
1024
1025
1026
1025
1021
1023
1024
1021
1020
1017
1011
1008
1010
1010
1008
1006
1000
999
1001
1001
997
994
988
987
990
991
990
987
985
985
987
987
988
983
979
981
985
987
986
982
978
980
983
986
985
981
980
978
979
982
981
980
979
979
981
982
980
980
976
977
977
986
981
980
977
982
979
980
984
980
977
979
981
985
987
983
980
982
983
987
985
982
979
980
980
983
984
982
982
982
983
986
984
982
979
980
983
984
985
981
980
976
978
981
981
977
975
975
979
979
978
977
975
975
980
978
980
976
974
974
976
977
977
973
975
972
975
976
975
972
970
968
973
975
975
971
966
969
970
974
973
972
970
969
970
974
974
970
966
969
972
975
974
971
965
966
971
973
971
967
964
965
971
972
973
972
970
970
972
974
973
973
971
968
972
976
975
973
968
969
970
973
976
972
970
969
971
973
972
970
970
970
970
975
975
973
971
971
973
978
974
974
973
970
973
975
975
972
969
969
973
976
974
974
972
970
976
981
982
981
981
980
984
987
987
985
986
985
989
989
988
984
983
981
979
981
977
977
976
975
979
979
981
983
981
982
982
979
975
970
966
969
970
975
973
971
968
968
970
973
973
969
968
968
969
972
971
969
968
968
972
974
974
969
969
969
972
975
973
973
969
972
977
982
985
985
987
995
993
986
972
961
953
941
931
924
926
939
957
986
1011
1027
1022
993
949
909
891
893
898
909
922
949
965
971
973
973
970
970
974
978
980
979
977
977
983
985
985
984
983
984
987
990
989
987
984
985
986
990
988
984
984
987
988
992
991
988
987
990
992
994
994
992
991
990
993
997
995
993
992
994
995
997
997
993
996
996
998
1000
999
998
996
997
1003
1008
1007
1003
1003
1004
1004
1011
1012
1009
1008
1010
1012
1017
1016
1015
1012
1017
1020
1023
1022
1024
1024
1023
1029
1031
1032
1031
1029
1029
1032
1035
1036
1032
1034
1033
1036
1036
1034
1030
1026
1025
1027
1025
1024
1017
1014
1012
1014
1014
1010
1006
1004
999
1004
1003
1000
996
994
992
997
996
994
992
990
989
988
994
993
991
987
988
990
988
991
987
985
986
987
992
989
987
983
987
991
990
989
988
985
988
988
990
987
985
985
987
989
989
989
985
981
985
989
990
987
985
984
985
990
990
990
988
986
987
989
992
990
991
987
986
991
992
991
989
986
987
988
992
991
989
986
988
992
994
992
989
986
986
987
990
990
985
984
985
984
988
987
985
981
984
984
987
983
985
980
978
982
984
983
982
980
982
985
987
983
981
979
980
985
984
984
978
978
979
979
979
983
980
975
978
978
980
982
980
977
979
980
983
983
980
979
976
982
983
981
981
979
980
982
981
983
978
977
977
980
982
981
981
978
977
979
982
982
980
977
977
977
981
981
976
975
976
979
982
983
978
978
977
983
984
980
980
976
979
984
982
983
980
977
979
978
980
983
980
980
984
987
990
990
989
989
990
994
998
995
992
992
993
995
998
997
994
992
991
994
994
990
987
982
983
986
989
988
983
982
982
986
990
991
988
987
988
991
990
984
978
977
978
981
983
981
978
973
973
975
982
982
977
975
976
976
982
980
976
977
977
982
982
981
978
977
976
979
981
980
980
978
978
983
984
985
985
984
987
995
1003
1008
1006
998
987
979
977
969
956
941
933
934
947
965
988
1007
1029
1039
1026
986
939
905
895
901
912
924
939
958
976
983
986
988
987
984
985
990
990
995
991
992
993
997
1001
1000
998
994
996
998
1001
1003
1001
998
999
1003
1005
1004
1000
1000
999
1004
1005
1004
1004
1000
1004
1004
1008
1006
1001
1000
1005
1007
1005
1006
1003
1004
1005
1009
1009
1010
1005
1005
1009
1011
1013
1012
1008
1005
1009
1014
1016
1018
1017
1012
1015
1015
1019
1022
1020
1018
1020
1023
1029
1023
1025
1026
1026
1031
1032
1033
1031
1033
1036
1039
1042
1042
1040
1039
1040
1044
1047
1045
1044
1042
1041
1044
1044
1043
1038
1034
1035
1036
1037
1031
1028
1023
1022
1022
1019
1017
1012
1008
1006
1007
1007
1006
1001
998
1000
1001
1003
1000
997
997
996
996
998
1000
994
993
991
994
997
994
991
991
989
992
993
996
990
987
989
993
995
993
990
989
991
992
996
992
991
989
988
994
995
993
990
987
989
993
994
994
990
991
992
993
994
995
992
989
991
994
995
996
992
992
991
993
997
993
992
988
989
988
992
990
990
988
989
992
992
989
988
983
984
987
990
988
986
982
983
986
988
990
985
983
983
983
987
986
985
983
984
985
988
986
982
982
983
984
987
987
982
979
985
986
988
985
984
980
982
983
986
984
980
978
980
983
986
984
982
980
979
980
982
983
981
979
978
983
985
982
982
977
980
983
981
978
979
975
977
981
983
981
979
977
976
980
984
981
978
979
979
981
984
982
981
980
979
983
984
983
983
976
982
983
988
989
988
987
988
991
996
994
991
990
992
999
1000
1000
996
995
994
995
995
994
989
985
984
985
988
986
983
981
984
986
992
993
989
989
987
992
992
986
980
979
978
981
984
982
982
978
976
980
981
978
973
974
976
981
982
980
977
975
977
980
982
981
976
976
975
980
982
981
976
977
980
982
986
986
985
989
1000
1009
1009
996
981
968
960
955
941
928
924
933
953
983
1011
1027
1024
996
950
909
893
895
901
914
937
959
974
977
977
977
978
982
982
987
984
983
986
988
991
991
992
989
993
996
998
996
994
993
996
999
1000
996
995
996
996
1000
1001
999
998
993
998
1001
1001
1002
1000
999
1001
1001
1005
1004
1002
1000
1002
1003
1007
1008
1002
1001
1006
1010
1012
1011
1008
1009
1010
1016
1017
1015
1012
1010
1015
1017
1018
1018
1017
1017
1019
1023
1028
1028
1024
1025
1027
1030
1036
1035
1033
1034
1035
1039
1042
1040
1038
1035
1035
1038
1039
1036
1030
1029
1025
1027
1027
1023
1019
1014
1011
1012
1010
1006
1000
997
996
995
997
994
992
991
990
990
992
990
987
986
986
986
987
988
986
985
984
987
989
987
986
982
982
984
984
984
983
979
979
984
986
984
983
978
981
980
985
986
981
978
980
982
986
985
979
979
978
984
984
982
977
978
980
980
984
981
979
974
977
979
982
985
979
977
979
980
979
982
978
976
978
979
978
974
972
972
974
975
978
975
973
970
970
974
976
973
972
973
972
974
976
972
971
968
973
973
974
974
972
968
969
972
974
973
966
968
968
972
974
974
970
969
970
973
973
974
968
967
970
971
973
971
968
968
966
972
972
971
969
966
969
970
971
970
967
966
966
971
973
971
967
967
968
970
971
972
968
967
968
971
971
971
967
966
970
970
972
972
967
966
969
971
972
973
969
967
972
975
978
980
978
976
977
980
982
981
979
980
983
985
985
985
983
981
982
984
985
979
974
970
972
974
977
977
972
971
973
976
980
977
977
977
977
978
976
974
966
962
965
969
969
969
966
965
967
969
971
968
965
962
964
967
967
967
965
961
964
966
969
966
962
964
966
968
970
969
967
967
967
968
973
970
969
968
971
979
981
988
990
990
991
986
974
962
953
942
932
916
902
896
898
910
928
955
982
1005
1011
1002
971
932
903
893
893
898
918
939
955
964
966
967
968
972
975
972
971
972
973
977
980
983
977
977
981
983
984
986
983
985
984
983
986
985
985
984
986
985
990
988
987
981
983
987
989
987
985
986
983
988
991
987
986
986
983
989
991
988
989
987
990
992
994
992
992
991
994
995
996
991
992
990
992
997
997
998
996
997
998
998
1003
1002
1000
999
1002
1006
1006
1005
1003
1004
1007
1010
1011
1012
1009
1009
1011
1015
1018
1017
1016
1015
1017
1020
1024
1022
1022
1020
1022
1025
1027
1024
1024
1022
1023
1024
1024
1023
1021
1016
1016
1014
1014
1011
1006
1004
1001
1003
1002
999
997
993
994
995
996
992
988
987
984
990
991
990
985
984
985
987
988
987
979
980
981
984
986
982
981
979
979
982
985
982
980
979
980
983
984
982
980
976
978
984
984
981
980
979
981
986
983
984
982
979
982
985
985
984
982
977
978
984
987
983
982
981
982
984
986
986
983
980
983
987
987
986
981
979
984
987
987
986
984
982
983
987
986
985
983
982
984
983
984
985
980
979
977
979
981
980
980
979
979
983
982
982
976
976
977
982
982
982
979
976
979
982
981
980
978
976
979
978
983
980
974
975
978
980
984
981
978
975
977
981
982
979
979
978
977
983
980
980
976
977
975
981
983
980
973
974
977
981
980
979
978
977
978
981
980
980
977
976
979
981
981
982
979
981
978
983
985
983
978
975
982
982
984
984
979
980
980
985
985
984
982
981
982
985
986
983
980
979
982
985
987
986
984
986
986
990
992
990
992
991
987
994
996
996
995
998
998
998
999
997
995
990
991
991
989
988
985
984
985
989
990
986
985
986
988
993
994
993
992
988
989
991
985
983
982
978
982
982
984
984
981
981
979
986
985
984
979
978
981
983
984
983
980
978
979
983
980
979
977
974
980
984
985
984
980
981
981
987
989
987
985
988
992
998
1001
1007
1002
991
977
968
959
953
937
923
914
916
926
941
962
984
1009
1025
1030
1015
983
946
919
909
909
912
920
939
960
978
982
984
984
986
988
993
995
994
994
993
995
1000
999
1000
998
996
998
1004
1006
1002
1002
1000
1001
1004
1006
1002
1002
1001
1001
1002
1006
1005
1003
1003
1008
1008
1011
1010
1005
1003
1009
1011
1013
1009
1008
1008
1009
1012
1015
1012
1010
1009
1010
1015
1014
1014
1014
1014
1016
1021
1022
1023
1019
1016
1020
1025
1027
1027
1025
1025
1029
1032
1034
1033
1030
1030
1034
1034
1038
1037
1040
1040
1044
1048
1048
1045
1046
1045
1048
1053
1052
1050
1051
1052
1051
1053
1055
1052
1048
1044
1042
1044
1042
1040
1036
1030
1030
1032
1029
1025
1021
1019
1017
1020
1017
1016
1011
1008
1010
1010
1014
1010
1006
1005
1002
1008
1011
1007
1005
1002
1004
1006
1008
1005
1001
997
999
1004
1004
1004
1001
1001
999
1001
1004
1002
1001
1000
1000
1004
1005
1003
998
998
997
1002
1004
1000
998
999
1001
1003
1003
999
997
998
998
1004
1003
999
999
998
998
1002
1003
1002
1001
1000
1000
1003
1004
1002
1000
999
1001
1001
1002
1002
996
996
997
1000
1000
998
995
993
995
1001
1000
999
994
993
996
998
999
996
993
994
994
999
997
992
988
989
991
993
994
991
990
989
990
994
993
991
988
989
991
994
992
993
990
990
990
992
993
991
987
990
991
995
992
991
989
988
986
994
993
992
990
987
991
992
993
992
989
988
989
993
992
992
989
987
989
991
990
988
984
986
986
990
991
991
987
985
989
990
992
993
990
991
989
992
996
992
992
993
994
993
993
993
992
990
992
995
996
995
991
993
998
1000
1001
1002
1002
1000
1003
1007
1008
1009
1006
1006
1007
1010
1008
1005
1002
999
999
1000
998
993
991
989
990
997
1000
994
995
996
996
999
1004
1002
999
997
996
996
993
990
987
985
988
988
990
989
985
987
988
989
991
991
988
986
988
992
991
991
987
987
987
990
989
987
987
986
986
992
995
991
989
988
990
998
998
1005
1006
1011
1015
1008
994
981
969
961
946
934
929
933
948
973
1000
1028
1045
1034
997
948
915
906
911
922
937
954
979
992
996
995
995
995
996
999
999
1002
998
1002
1000
1005
1005
1005
1004
1003
1008
1011
1011
1008
1006
1005
1008
1008
1009
1010
1007
1006
1007
1010
1013
1011
1010
1009
1012
1015
1012
1010
1008
1009
1012
1014
1015
1013
1010
1009
1017
1019
1018
1014
1013
1014
1019
1019
1020
1018
1016
1018
1018
1022
1022
1025
1023
1023
1026
1029
1031
1030
1031
1027
1032
1038
1041
1039
1037
1037
1042
1049
1047
1049
1048
1047
1049
1052
1057
1054
1054
1054
1054
1055
1055
1050
1046
1045
1045
1044
1045
1040
1033
1031
1031
1033
1032
1029
1023
1021
1022
1022
1021
1018
1012
1010
1010
1015
1013
1011
1007
1006
1009
1010
1009
1007
1003
1001
1005
1006
1005
1002
1000
1001
1003
1007
1008
1006
1003
1002
1005
1004
1005
1004
998
994
999
1001
1004
999
998
998
1000
1001
1004
1000
997
998
999
1000
1002
1000
997
995
998
1000
1003
999
997
996
999
1000
1002
1001
997
996
998
1002
1000
1000
996
997
1000
1002
1003
1000
998
992
997
999
1000
997
993
992
992
998
996
996
993
989
992
997
997
994
993
992
992
994
995
994
993
992
993
995
996
993
990
987
989
992
994
993
987
986
989
993
994
992
989
984
989
992
993
990
988
985
986
991
993
990
988
986
989
993
991
987
988
988
989
990
992
988
988
983
988
991
992
988
983
985
986
986
989
987
985
987
988
991
991
987
986
982
985
989
991
989
987
986
989
986
987
985
983
984
986
989
991
988
986
988
988
995
997
996
995
996
997
999
1001
999
997
997
999
1003
1003
999
998
998
996
998
995
994
990
989
993
994
995
994
991
991
995
995
997
998
996
994
995
991
989
985
980
977
984
985
988
984
983
982
985
986
986
986
981
981
985
986
987
983
982
979
981
986
986
985
980
978
982
979
980
979
979
983
986
988
990
991
992
995
1001
1008
1009
1001
986
976
966
957
945
924
908
904
913
936
960
981
1006
1019
1022
999
956
918
902
903
912
929
946
959
972
977
982
988
987
989
985
985
989
994
993
988
991
992
996
999
1000
997
996
991
994
995
998
1000
997
995
997
998
1002
999
998
999
999
1000
1003
999
994
996
998
1001
1002
1001
999
998
1002
1002
1003
1000
995
998
1001
1005
1005
1005
1001
998
1004
1006
1006
1003
1001
1003
1005
1010
1010
1009
1011
1010
1011
1017
1018
1020
1013
1014
1019
1019
1017
1020
1018
1017
1022
1025
1024
1025
1024
1025
1029
1032
1033
1029
1029
1030
1028
1033
1033
1033
1027
1026
1029
1030
1029
1025
1016
1018
1017
1019
1018
1014
1008
1005
1006
1007
1006
1002
996
994
996
1000
999
995
990
990
990
995
995
989
988
988
990
991
992
989
985
984
987
987
989
987
986
986
987
989
989
988
982
982
987
987
988
988
986
984
983
986
987
988
984
983
987
988
986
984
983
986
984
985
984
988
985
985
985
987
987
986
985
985
985
988
988
984
982
985
984
986
987
982
982
979
983
983
983
985
975
978
979
981
982
980
975
977
976
981
980
980
977
975
977
980
979
978
975
974
975
978
979
976
975
975
977
980
979
977
974
974
977
979
980
977
969
971
977
978
976
975
969
975
974
979
979
975
974
973
974
975
977
975
974
974
976
978
980
976
975
972
976
980
979
978
972
975
977
978
979
979
977
976
981
981
983
980
974
975
978
982
980
976
977
974
978
980
980
977
974
974
978
982
981
980
980
982
984
985
988
988
987
987
989
990
993
991
991
992
992
990
993
990
983
982
985
985
984
980
978
977
980
982
982
980
981
982
986
990
988
984
984
981
980
979
976
974
972
971
976
979
978
974
972
970
972
974
975
975
970
973
971
976
975
972
970
971
974
975
974
971
971
974
976
981
981
980
981
985
988
996
1002
998
982
964
951
945
930
913
893
886
889
910
932
961
985
1003
1004
980
941
908
892
899
915
940
959
972
974
980
983
987
988
986
982
985
985
989
993
990
987
989
992
996
996
996
995
994
995
996
998
997
997
994
997
998
998
998
996
997
998
999
1001
998
998
997
1000
1005
1004
1004
1002
1003
1004
1008
1008
1006
1004
1004
1006
1010
1009
1008
1007
1008
1010
1013
1015
1014
1010
1015
1017
1020
1021
1020
1019
1018
1021
1025
1026
1025
1025
1025
1029
1036
1035
1034
1033
1035
1038
1043
1043
1039
1038
1038
1044
1045
1044
1043
1041
1038
1040
1041
1041
1036
1034
1032
1033
1031
1030
1025
1021
1019
1017
1015
1015
1015
1008
1004
1007
1009
1005
1002
998
996
997
1000
999
996
994
993
993
994
992
993
989
989
995
997
996
993
989
986
991
995
995
992
989
990
992
995
991
988
990
987
990
995
992
989
989
989
991
992
993
991
990
992
991
996
994
993
991
991
992
996
995
994
991
989
991
994
995
996
989
990
995
996
999
996
993
995
996
997
997
993
992
991
994
996
995
991
987
988
989
992
988
986
984
983
987
988
987
988
984
983
987
991
990
987
985
984
986
987
983
981
981
982
982
984
984
981
981
984
984
986
983
983
979
980
983
984
983
985
982
981
984
986
984
981
980
980
983
986
987
984
980
977
979
984
983
982
979
979
983
987
985
981
980
979
981
985
983
980
978
979
980
985
982
983
979
979
980
983
983
982
978
978
979
983
986
981
980
984
988
993
996
995
991
992
996
998
1000
996
995
995
994
995
996
989
985
985
987
991
991
988
987
987
993
998
994
991
983
977
979
983
985
984
981
981
978
983
984
982
978
981
982
983
984
981
979
977
980
983
979
982
978
979
979
983
984
982
980
977
982
988
992
991
992
998
1004
1007
994
976
962
956
949
937
922
915
922
940
964
993
1020
1033
1027
1002
961
927
905
902
906
921
940
964
977
979
983
984
986
992
991
988
987
989
993
998
998
994
994
993
997
1001
1001
1001
996
999
999
1005
1004
1002
998
998
999
1003
1003
1002
1002
1002
1003
1008
1008
1006
1001
1003
1005
1008
1009
1008
1007
1006
1008
1011
1011
1007
1004
1008
1010
1016
1015
1013
1011
1012
1013
1016
1019
1017
1016
1016
1019
1024
1021
1021
1020
1021
1023
1028
1028
1028
1024
1028
1030
1036
1037
1037
1036
1038
1038
1045
1044
1045
1044
1046
1048
1052
1052
1050
1050
1050
1052
1056
1053
1048
1046
1042
1045
1047
1041
1037
1034
1031
1033
1033
1029
1024
1020
1017
1018
1018
1015
1010
1006
1008
1008
1010
1010
1005
1004
998
999
1002
1003
1001
999
996
998
1004
1000
998
994
995
1000
1001
1002
999
997
995
998
1004
999
997
996
995
998
1000
1000
998
995
990
994
997
995
993
992
990
995
999
997
995
993
992
993
995
996
994
994
994
997
1001
998
997
994
994
997
998
996
997
995
994
997
999
997
996
995
995
998
1002
1000
997
995
993
997
1000
998
996
992
993
993
996
994
991
990
984
990
991
991
988
987
989
990
993
991
987
984
986
989
992
991
986
984
983
985
989
987
986
985
986
986
987
986
985
983
983
983
986
986
983
984
983
986
988
983
981
980
981
984
985
985
984
980
980
983
984
985
981
980
982
982
987
986
981
980
981
983
986
985
980
980
982
984
985
985
982
981
980
983
986
984
982
981
982
981
985
985
985
982
983
985
987
985
982
978
980
982
986
990
987
986
985
991
992
992
992
992
991
994
998
999
997
991
992
997
999
996
992
988
984
985
987
986
984
982
983
986
990
989
989
984
988
991
994
994
990
987
984
984
983
980
977
974
974
979
982
980
979
975
973
974
980
979
977
975
976
976
976
977
978
972
970
976
982
982
982
978
980
980
983
978
980
977
979
978
981
982
983
986
988
994
999
1006
1006
998
988
980
975
966
955
936
921
911
913
925
938
959
984
1009
1028
1031
1011
976
937
914
907
907
910
921
940
958
975
976
978
977
978
981
984
983
982
981
982
985
990
990
989
989
990
990
994
995
991
991
991
991
995
996
994
993
992
995
995
998
994
991
989
993
995
999
995
994
993
994
1001
998
996
995
996
996
997
1002
998
998
996
996
1002
998
996
998
999
1003
1004
1005
1001
1001
1001
1007
1008
1008
1004
1003
1005
1009
1013
1012
1011
1007
1012
1015
1021
1019
1015
1014
1018
1024
1027
1027
1023
1023
1026
1028
1029
1029
1029
1026
1028
1031
1035
1033
1030
1027
1029
1026
1031
1030
1025
1019
1018
1020
1019
1017
1013
1007
1006
1009
1005
1005
1001
996
993
998
996
997
991
986
985
989
992
992
987
985
986
987
987
986
988
982
983
983
987
986
983
983
981
985
988
985
982
982
980
983
984
983
982
983
981
983
986
984
978
976
974
982
984
982
982
979
979
979
981
984
983
981
979
983
985
985
980
978
978
980
982
983
979
977
978
982
984
982
981
979
974
980
984
984
979
974
978
981
983
981
978
975
976
979
980
978
977
973
971
973
980
975
975
971
970
974
979
977
974
973
972
971
978
979
973
971
973
975
977
976
970
970
970
972
975
972
968
967
969
972
973
971
970
969
969
974
972
973
969
971
968
972
978
974
972
971
969
970
973
973
972
969
970
971
975
972
970
968
966
968
974
972
972
964
967
968
974
972
971
970
968
973
976
976
968
969
968
969
974
975
969
968
971
973
973
974
972
967
968
970
973
976
975
972
978
979
981
982
978
980
980
983
988
988
986
984
983
983
985
985
978
973
973
976
975
975
974
970
974
977
980
980
976
974
977
980
984
983
981
975
971
971
971
969
965
965
965
968
972
970
968
963
965
968
971
968
967
964
966
969
972
968
965
965
967
972
973
970
968
966
967
972
974
973
973
973
975
981
986
987
988
981
970
955
942
929
915
895
881
873
879
892
910
930
959
987
997
985
951
914
894
890
896
907
923
939
960
966
975
977
979
976
975
979
981
984
982
981
983
983
986
986
987
984
988
993
994
993
993
990
992
994
996
998
994
995
995
996
996
997
995
993
994
995
1000
997
995
995
995
999
1000
999
997
995
997
1000
1001
1000
999
1000
1003
1004
1008
1009
1008
1006
1005
1010
1013
1013
1012
1010
1013
1012
1017
1018
1019
1015
1018
1024
1024
1025
1023
1023
1025
1029
1031
1031
1031
1027
1031
1034
1039
1037
1037
1034
1036
1039
1042
1038
1036
1038
1037
1038
1039
1038
1032
1029
1026
1027
1025
1022
1020
1016
1013
1014
1015
1011
1006
1003
1001
1001
1002
1000
997
994
994
995
995
996
990
989
990
991
991
989
987
986
988
991
990
988
990
984
987
986
989
989
989
985
985
990
992
989
986
983
987
991
993
992
987
985
987
987
990
989
986
985
986
992
993
993
989
988
986
990
992
992
991
988
989
991
992
993
990
984
983
989
990
990
986
985
986
989
992
991
985
984
986
988
990
987
984
984
984
986
986
985
984
980
980
980
983
981
976
977
976
982
982
979
979
975
973
977
981
979
978
977
972
977
981
980
977
974
972
978
976
975
974
972
973
976
979
978
976
974
973
976
979
976
975
972
972
972
977
974
973
970
971
975
978
978
975
973
975
978
980
980
976
975
975
979
980
980
976
972
974
977
979
978
976
976
976
979
980
978
976
974
975
980
985
986
982
984
985
989
993
990
989
988
987
992
995
994
989
986
984
990
990
990
983
979
978
980
983
982
980
977
978
982
983
985
984
981
985
989
988
984
978
973
971
973
975
971
971
971
974
973
974
974
973
971
974
978
979
977
974
971
973
974
976
979
971
970
972
976
975
979
975
972
971
975
981
976
975
977
981
983
987
991
995
994
989
972
964
957
947
932
915
906
910
921
935
960
987
1015
1031
1026
994
952
922
906
906
908
912
925
947
961
975
980
978
979
983
986
989
988
985
984
987
994
999
996
992
994
995
997
1000
999
998
999
997
1003
1004
1003
1002
997
998
1003
999
1003
1001
999
997
1000
1004
1004
1004
1001
1004
1007
1009
1009
1005
1002
1004
1009
1012
1008
1007
1007
1007
1012
1014
1011
1011
1009
1009
1011
1012
1014
1012
1012
1014
1016
1020
1019
1020
1018
1020
1023
1025
1026
1026
1022
1027
1029
1033
1035
1029
1032
1033
1038
1038
1040
1039
1038
1042
1045
1050
1046
1046
1043
1045
1045
1052
1046
1044
1040
1040
1039
1038
1037
1032
1028
1024
1024
1026
1019
1011
1008
1009
1009
1008
1005
1004
1002
1000
1002
999
997
996
995
997
996
999
999
996
993
993
995
999
995
989
988
989
993
996
995
993
990
988
993
995
993
992
986
988
992
993
990
991
987
987
991
992
989
986
981
982
988
989
987
983
984
985
990
990
988
990
987
988
991
993
991
989
985
989
989
993
990
987
984
987
989
991
990
987
986
986
988
987
988
984
981
983
986
987
986
982
980
984
986
984
983
976
978
980
982
985
983
981
979
981
982
985
982
979
978
979
980
982
980
975
976
976
979
981
978
975
974
975
980
981
977
974
972
974
976
978
978
974
974
973
973
978
976
973
973
973
975
977
974
971
970
972
976
979
976
974
972
971
975
975
973
975
972
973
977
979
977
975
974
975
976
979
975
974
973
973
975
975
973
972
971
978
981
979
982
981
978
979
985
989
988
983
983
983
987
988
984
981
977
976
977
977
974
971
969
974
974
976
976
973
972
978
981
984
983
977
975
971
972
969
970
966
967
971
971
973
970
966
964
967
968
971
968
964
963
964
968
967
968
965
964
966
968
970
969
964
961
964
967
973
971
970
969
972
981
984
984
986
990
987
979
968
957
944
929
915
900
901
905
924
948
980
1007
1021
1009
967
924
898
895
904
918
933
954
964
967
972
973
972
968
969
974
978
979
977
975
979
982
985
984
977
978
983
984
985
983
982
982
981
987
987
987
984
982
984
987
989
987
986
986
984
989
989
987
987
985
988
990
992
990
987
986
990
992
995
991
991
989
990
994
997
994
996
995
997
1000
1001
1000
999
1000
1001
1003
1007
1006
1003
1004
1006
1008
1011
1010
1012
1012
1014
1016
1018
1020
1018
1019
1022
1023
1026
1024
1024
1022
1023
1025
1028
1027
1024
1022
1022
1025
1024
1023
1017
1016
1015
1010
1010
1009
1003
999
998
998
997
998
992
990
990
992
992
989
987
982
986
984
985
987
984
980
981
985
985
985
981
978
980
983
984
982
980
978
978
982
983
983
979
977
976
983
985
985
981
978
980
982
983
982
979
978
979
981
983
983
981
979
980
983
984
984
982
981
979
982
985
984
983
981
981
986
985
986
983
981
982
984
984
985
980
980
977
983
984
984
980
977
979
982
983
982
978
975
978
980
980
982
977
975
977
976
979
979
976
973
976
977
978
978
973
974
975
978
979
978
975
973
974
975
975
977
972
972
973
975
976
974
973
967
969
973
975
974
970
968
969
975
976
977
974
970
972
974
978
977
973
972
973
975
975
974
974
971
973
976
976
974
972
970
971
975
977
975
975
974
974
976
979
977
973
975
974
977
980
977
975
975
976
975
980
979
978
980
982
986
989
990
988
987
988
991
994
994
992
990
989
992
993
990
984
979
982
982
984
984
981
980
979
982
986
984
985
983
985
986
985
980
973
968
970
977
979
974
974
971
972
974
974
974
969
971
973
975
976
973
971
970
971
972
975
973
971
969
970
974
977
977
976
976
978
985
987
994
995
988
973
958
944
934
916
898
883
888
901
923
946
971
998
1006
995
959
919
896
892
901
917
934
952
964
971
977
981
982
979
980
981
986
989
988
985
985
986
991
993
991
989
990
990
995
996
993
993
994
992
998
999
997
997
997
995
995
1001
1000
996
996
998
1001
1003
1001
999
999
1003
1003
1002
1002
1000
1000
1000
1001
1005
1009
1006
1006
1005
1009
1010
1011
1009
1008
1011
1014
1015
1017
1014
1013
1017
1020
1025
1026
1023
1025
1027
1032
1037
1031
1032
1034
1038
1040
1043
1045
1041
1041
1043
1047
1046
1047
1040
1038
1037
1037
1033
1032
1025
1022
1021
1019
1018
1014
1010
1006
1005
1006
1005
1000
996
996
995
995
998
996
992
990
991
993
993
992
988
988
988
993
995
994
991
989
991
992
993
992
990
989
986
991
994
993
990
986
987
992
992
991
988
986
989
992
992
992
988
988
991
989
992
990
990
984
988
990
990
990
989
989
990
992
994
990
988
986
988
990
989
989
986
984
984
988
989
987
985
984
986
987
991
985
985
984
982
986
985
983
981
979
980
982
982
983
979
977
981
981
984
983
979
977
978
980
982
981
979
978
980
983
984
981
978
978
979
982
983
983
979
979
980
983
986
983
978
977
980
983
984
979
980
977
978
979
981
982
979
980
981
985
985
984
981
979
982
984
986
983
979
978
979
983
983
983
981
981
981
985
981
984
981
981
981
986
987
983
985
984
982
987
988
988
989
988
993
996
1000
998
996
994
995
998
1000
998
998
995
997
997
1000
994
992
990
990
988
989
987
982
981
982
988
987
987
986
986
987
990
991
989
986
980
980
980
980
978
977
975
978
978
981
980
976
973
974
976
978
976
975
974
976
977
979
978
973
973
976
978
980
975
972
975
977
978
981
978
975
976
983
986
989
990
989
993
999
998
985
967
955
945
935
921
904
895
896
906
929
955
983
1004
1016
1013
990
954
917
897
890
899
911
928
949
968
977
979
984
988
988
988
986
988
988
993
995
992
992
991
994
997
999
998
996
992
993
995
997
1000
993
995
997
999
1000
999
997
997
1001
1002
1004
999
1000
997
1000
1003
1003
1002
999
997
999
1004
1005
1001
1002
998
1001
1002
1006
1003
1006
1003
1008
1009
1010
1007
1002
1002
1007
1012
1012
1013
1009
1011
1014
1015
1016
1015
1012
1014
1015
1020
1023
1023
1019
1018
1023
1029
1027
1028
1027
1028
1031
1033
1035
1034
1034
1032
1033
1036
1041
1039
1038
1035
1037
1039
1037
1037
1032
1028
1031
1031
1030
1027
1023
1018
1021
1022
1020
1016
1008
1004
1006
1005
1003
1003
998
994
996
995
995
993
989
988
988
990
990
992
986
984
987
987
990
989
985
986
986
989
990
988
986
983
986
985
987
983
983
981
983
983
985
984
980
978
979
982
984
981
982
978
980
984
983
981
979
979
980
984
984
983
980
982
983
985
985
982
980
979
979
982
982
979
979
977
981
982
982
979
977
979
980
983
984
983
975
973
978
981
980
980
977
977
978
981
979
978
972
972
976
977
978
979
975
973
974
974
976
974
972
970
970
971
975
971
970
970
971
973
975
975
970
970
971
972
975
973
971
970
970
971
973
972
968
968
969
972
971
969
965
967
968
971
970
970
964
964
966
969
967
970
967
965
968
969
969
968
964
965
962
969
969
968
967
966
967
970
968
967
962
962
964
967
968
964
961
965
966
969
967
969
962
964
966
969
969
966
963
960
965
969
972
969
969
970
970
977
977
977
974
972
975
979
979
982
979
978
978
981
979
975
972
970
969
972
971
969
964
962
963
968
969
969
968
968
971
975
974
972
970
965
963
961
962
959
960
958
959
961
963
963
961
957
959
966
965
962
960
960
961
964
965
965
960
959
960
963
963
960
955
955
960
964
965
962
959
960
962
967
968
967
971
975
982
986
989
974
958
944
936
926
911
890
878
882
897
921
949
975
993
1000
988
959
919
892
881
883
894
915
937
951
958
959
958
966
969
967
965
967
969
973
972
972
971
971
974
978
978
973
974
973
977
978
979
976
973
974
978
980
980
977
977
976
979
979
980
979
975
977
979
983
984
982
976
978
980
982
984
980
982
979
983
987
984
982
982
980
986
990
992
991
987
988
989
995
994
995
993
992
997
999
999
998
997
998
1000
1003
1004
1002
1002
1003
1006
1009
1012
1008
1008
1006
1011
1016
1018
1014
1013
1014
1016
1021
1019
1019
1015
1011
1014
1015
1017
1012
1007
1003
1002
1004
1004
1001
997
994
992
995
991
988
986
983
982
984
983
982
979
978
974
980
979
978
976
974
975
978
977
976
974
972
973
977
976
972
969
969
972
977
976
976
973
974
973
977
979
975
971
972
976
976
976
977
973
974
976
976
975
973
970
972
972
977
978
972
972
974
977
979
982
978
975
976
976
979
978
976
977
975
975
979
979
977
973
973
975
978
977
976
972
973
970
974
979
975
971
970
974
976
975
971
969
970
970
973
971
972
969
967
969
970
970
967
964
963
967
970
969
966
965
964
965
968
965
966
964
962
965
967
968
966
963
963
966
967
968
964
963
964
965
967
968
964
964
965
964
967
969
966
962
964
966
968
968
968
962
963
964
969
968
967
964
964
967
965
969
966
963
962
965
969
969
966
963
964
963
967
969
967
967
964
967
968
968
967
964
964
965
968
969
966
962
966
971
974
976
976
973
976
977
979
978
977
979
976
982
985
984
982
975
975
977
977
975
971
967
964
969
970
972
970
967
967
970
974
978
974
973
974
972
970
967
963
959
958
960
964
966
966
962
963
962
965
965
963
962
960
964
963
963
961
959
961
962
965
965
962
960
960
960
966
965
966
962
965
968
973
976
980
979
982
977
964
948
934
921
905
890
883
889
902
922
953
982
1003
1008
977
932
891
879
883
897
916
936
951
958
967
970
972
966
966
968
973
975
976
973
975
978
984
983
983
978
980
984
987
987
983
985
980
985
986
988
986
983
982
984
989
987
984
984
983
987
989
989
988
984
986
988
990
993
990
989
987
992
995
996
995
990
994
995
998
998
998
997
998
1001
1006
1005
1008
1004
1007
1009
1013
1011
1011
1011
1014
1018
1023
1023
1020
1018
1020
1024
1028
1027
1025
1026
1027
1029
1030
1029
1030
1027
1026
1027
1027
1025
1023
1019
1015
1015
1015
1014
1007
1001
1001
998
1000
1001
997
990
988
992
991
989
986
982
981
981
984
981
981
979
977
980
981
979
978
973
976
979
977
979
976
972
973
979
980
976
975
974
973
975
977
976
973
972
972
974
976
974
976
971
971
976
976
978
976
969
969
975
975
974
971
969
969
974
978
977
972
969
971
974
979
981
977
975
972
974
979
977
974
972
973
974
979
978
976
971
971
971
976
976
973
970
968
970
972
973
971
967
967
967
970
968
966
962
964
967
968
970
967
964
964
967
969
967
966
965
963
965
968
969
965
963
962
962
965
964
963
963
963
966
965
966
963
962
957
960
963
966
963
962
961
963
965
965
963
960
960
962
964
967
963
961
959
962
967
966
964
960
961
961
966
962
964
958
960
962
965
966
963
960
962
963
963
963
962
959
958
962
965
966
963
958
962
959
967
971
970
968
972
971
976
975
973
974
971
978
982
977
977
976
974
975
979
977
974
970
966
969
970
965
964
963
962
968
971
970
968
967
968
970
973
970
964
959
955
955
958
960
958
953
952
955
958
958
957
953
953
956
961
959
957
952
952
954
958
961
954
951
954
956
959
957
956
952
952
954
958
959
959
957
960
959
967
970
974
975
975
968
960
945
933
922
905
891
881
876
881
893
922
952
978
995
990
965
922
888
876
879
885
899
921
945
955
957
958
958
960
961
965
963
963
962
964
964
972
972
969
970
970
973
975
977
975
972
971
974
977
979
975
974
973
976
977
976
975
973
972
977
979
979
977
975
973
977
981
982
978
979
980
981
985
985
982
980
982
983
989
988
985
984
983
986
992
993
989
990
992
994
998
999
998
995
996
1000
1003
1008
1005
1004
1006
1008
1011
1015
1013
1012
1012
1015
1017
1016
1015
1013
1016
1013
1015
1017
1010
1008
1006
1007
1006
1006
1001
997
994
993
993
991
987
983
979
980
982
980
977
973
973
972
976
974
972
969
971
971
973
970
969
967
967
970
972
973
969
967
966
967
969
970
966
965
964
966
969
968
967
966
965
967
968
968
967
963
966
965
970
968
963
961
960
964
965
965
963
961
965
964
970
968
969
968
965
967
970
971
969
965
963
968
972
969
969
965
964
969
969
969
964
963
964
964
965
967
964
961
962
964
967
967
963
962
961
965
967
966
961
961
961
960
966
966
962
962
958
960
962
963
961
956
956
958
962
961
960
957
955
955
963
961
959
956
955
958
964
961
960
959
959
961
963
959
956
959
959
959
963
960
957
959
956
958
962
961
958
955
958
960
964
964
963
961
963
964
964
963
962
961
956
961
966
965
963
963
963
964
967
965
965
962
962
966
965
966
968
967
970
973
978
977
976
973
973
975
980
980
980
977
977
978
981
979
977
973
971
969
970
968
970
965
967
970
972
967
967
968
968
972
978
974
968
964
962
963
963
964
960
961
959
963
965
964
960
959
958
960
963
962
959
959
958
962
964
963
961
958
962
963
967
963
964
961
961
962
966
966
969
968
968
971
977
983
984
976
961
947
936
923
905
886
871
874
888
909
936
959
983
997
991
957
914
883
878
882
899
918
937
951
960
963
971
970
970
968
970
972
976
978
977
977
976
980
985
986
985
980
981
985
987
986
986
984
984
988
990
989
984
986
983
983
988
989
988
986
986
987
989
990
989
991
987
992
991
994
991
989
991
993
998
998
997
994
993
996
1001
1001
1001
999
999
1002
1006
1002
1007
1005
998
1004
1011
1009
1010
1009
1007
1012
1016
1015
1012
1012
1017
1020
1022
1023
1023
1023
1024
1026
1028
1029
1028
1023
1026
1029
1032
1031
1030
1028
1027
1029
1031
1028
1027
1022
1022
1020
1023
1017
1011
1008
1007
1005
1007
1005
999
997
996
996
997
994
990
988
986
988
989
988
987
983
982
985
987
986
983
982
981
983
985
984
980
979
978
980
983
984
981
976
979
979
979
981
980
976
977
980
980
982
978
976
979
982
984
979
975
979
979
980
982
983
982
980
980
981
983
985
984
978
979
985
985
987
983
981
979
985
988
986
983
980
979
984
986
987
979
981
980
983
982
981
981
977
975
980
982
981
980
976
971
975
976
978
975
974
974
977
977
978
974
972
969
972
978
975
972
969
970
971
976
974
971
968
969
971
974
975
973
970
970
971
976
974
972
970
967
973
977
973
967
968
966
972
974
974
970
971
970
972
971
970
971
965
966
971
973
973
973
969
973
974
973
973
971
966
970
972
974
974
973
970
970
971
973
977
972
970
971
976
977
981
981
979
980
982
987
986
984
984
985
987
990
986
984
981
978
979
979
978
975
973
974
975
979
977
978
979
979
980
982
977
971
966
965
971
972
973
969
967
968
968
973
975
972
971
967
972
971
971
967
966
964
969
970
971
969
966
967
970
973
970
970
968
969
970
975
975
974
974
976
984
989
993
990
980
964
951
945
936
916
901
892
900
915
936
962
983
1003
1012
1006
973
931
895
886
890
904
918
938
950
962
968
974
975
976
973
974
976
981
982
980
980
981
985
988
989
987
985
988
990
993
994
990
988
990
992
995
994
994
993
988
993
994
996
992
992
992
991
996
997
994
993
994
996
1000
998
998
996
997
999
1000
1000
1000
999
997
1000
1002
1005
999
1000
1001
1005
1008
1010
1008
1005
1006
1008
1010
1012
1008
1008
1011
1012
1017
1016
1015
1013
1015
1019
1022
1023
1023
1023
1023
1027
1029
1032
1031
1029
1031
1034
1036
1039
1034
1034
1035
1034
1039
1039
1036
1033
1032
1034
1037
1032
1028
1024
1019
1024
1023
1020
1017
1011
1009
1007
1010
1007
1002
996
994
998
998
995
991
985
989
991
993
994
990
989
987
991
991
992
986
986
986
987
989
990
986
984
983
985
988
987
985
983
984
987
989
990
984
981
984
987
988
988
983
985
984
987
989
988
984
981
980
985
988
987
988
984
986
989
988
993
988
985
987
986
989
992
990
988
990
993
992
990
989
988
986
989
989
987
985
984
984
988
989
988
985
983
982
985
987
987
984
982
983
985
985
986
984
981
981
984
984
982
979
977
978
982
980
980
977
978
977
979
982
981
979
976
976
980
980
978
979
977
975
979
981
980
978
974
976
979
981
980
976
973
975
977
979
980
979
976
976
977
981
982
978
976
978
979
980
978
977
975
974
979
980
978
976
977
975
978
980
981
978
977
976
978
981
980
977
977
977
978
980
981
979
973
976
981
983
980
979
974
976
979
987
985
987
984
988
990
993
990
991
988
989
992
999
994
993
992
990
993
993
988
983
979
981
980
983
984
979
978
977
979
985
985
983
981
985
988
988
985
981
977
973
975
978
976
974
971
971
976
975
975
973
967
972
974
977
976
974
970
971
974
977
978
974
973
973
972
973
976
971
970
971
974
976
976
974
973
975
978
982
984
982
983
987
994
999
991
984
967
957
949
943
925
906
892
893
907
931
956
980
1001
1008
997
964
921
894
888
893
907
926
943
959
968
972
977
983
984
983
984
980
986
989
989
990
986
991
993
995
995
993
990
992
995
999
999
996
994
995
998
999
1000
998
998
995
998
1001
999
999
997
999
1001
1003
1002
1000
999
1000
1003
1006
1005
1004
1000
1002
1003
1009
1005
1002
1002
1002
1009
1009
1009
1005
1004
1006
1010
1012
1011
1009
1010
1012
1016
1016
1017
1012
1016
1017
1019
1020
1020
1018
1016
1018
1022
1028
1026
1027
1027
1026
1031
1034
1033
1031
1032
1032
1035
1040
1038
1037
1034
1038
1038
1041
1041
1036
1031
1031
1035
1036
1033
1029
1026
1025
1025
1025
1023
1019
1011
1009
1010
1013
1012
1006
1003
1001
1004
1002
1001
1000
992
995
996
997
995
993
993
993
994
996
997
990
988
987
990
992
993
992
991
990
991
994
991
989
987
987
990
992
992
987
986
989
992
994
992
988
984
986
988
992
991
988
988
987
989
991
990
987
983
987
989
992
992
987
987
989
989
995
993
987
989
991
993
995
993
989
987
988
991
993
992
988
985
986
989
991
991
989
985
986
988
989
989
986
985
984
986
990
988
986
984
984
986
988
987
985
982
982
985
987
985
984
979
982
982
987
982
982
979
981
979
984
983
978
978
979
982
982
981
980
977
978
980
982
980
978
979
975
979
980
980
979
975
976
977
981
981
977
978
979
982
982
979
976
977
977
979
981
984
980
977
977
979
983
984
978
978
978
981
984
983
979
976
975
982
984
983
980
978
978
981
983
981
981
978
975
980
984
984
979
978
977
982
984
982
979
982
984
988
993
993
991
988
989
993
995
994
992
991
991
993
998
998
992
992
990
993
992
990
985
983
983
987
989
990
987
984
983
987
992
991
991
986
987
986
984
979
976
973
975
977
979
981
976
976
975
978
982
980
979
977
976
979
980
981
976
974
976
979
980
980
978
976
977
979
980
981
978
976
976
981
984
984
982
981
986
992
996
999
1001
999
988
976
964
955
940
924
905
896
898
910
923
945
973
1000
1020
1017
995
956
921
900
899
905
913
931
956
974
981
979
980
982
986
986
989
989
991
989
991
995
998
999
999
998
996
1000
1003
1001
1002
998
999
1004
1004
1003
999
1000
1001
1004
1006
1006
1005
1002
1003
1003
1008
1006
1003
1000
1000
1004
1007
1008
1007
1004
1004
1008
1013
1010
1008
1005
1007
1010
1013
1013
1010
1009
1010
1011
1015
1017
1017
1015
1017
1020
1022
1021
1020
1021
1020
1022
1026
1026
1024
1024
1027
1028
1034
1031
1031
1029
1031
1035
1039
1039
1035
1035
1037
1038
1044
1042
1040
1039
1039
1042
1043
1045
1041
1039
1037
1042
1041
1036
1035
1033
1030
1032
1031
1028
1024
1020
1019
1020
1020
1015
1009
1009
1007
1009
1010
1005
1006
999
1004
1003
1004
1003
999
999
998
999
1003
1000
997
995
994
1000
998
1000
997
995
996
998
999
998
995
994
994
998
1000
1000
994
997
997
1000
1002
998
993
997
994
999
1000
999
998
995
997
1001
1002
1000
998
995
998
998
1003
1002
999
991
995
1001
1003
999
998
998
997
1002
1003
1001
997
995
995
998
1000
998
993
992
992
996
996
995
990
989
989
992
997
993
990
989
990
992
991
990
986
987
989
990
991
989
987
985
987
987
988
990
987
985
986
986
987
987
985
982
981
988
990
988
985
985
984
988
988
985
986
987
985
987
991
987
981
984
985
986
987
987
987
983
984
985
989
986
986
984
984
989
986
988
986
984
985
986
987
988
986
983
983
986
985
988
983
982
985
987
990
989
984
983
986
988
991
990
988
988
990
996
1000
998
996
994
995
998
1001
1001
1001
1000
1001
1002
1004
1000
999
992
994
994
994
992
988
988
990
990
993
994
989
989
989
994
995
997
991
990
985
987
983
981
984
983
982
984
987
985
983
978
983
984
986
986
984
984
982
988
988
989
983
983
984
985
988
987
985
983
984
985
987
990
987
984
986
991
993
992
994
996
1001
1007
1010
1001
982
967
958
956
948
931
917
911
919
937
961
986
1009
1025
1023
1005
962
922
900
898
906
920
943
966
980
982
986
992
997
995
993
993
995
999
1003
1001
1000
1001
1001
1004
1008
1003
1003
1001
1002
1005
1009
1008
1006
1003
1005
1008
1011
1011
1008
1006
1007
1010
1014
1010
1009
1010
1008
1013
1015
1013
1012
1009
1013
1016
1018
1014
1013
1010
1012
1015
1017
1016
1016
1015
1017
1020
1022
1021
1019
1019
1021
1024
1027
1026
1025
1023
1027
1029
1033
1032
1028
1027
1028
1033
1037
1038
1037
1036
1038
1041
1046
1045
1045
1043
1046
1048
1050
1049
1047
1045
1047
1050
1052
1048
1044
1040
1040
1044
1043
1040
1037
1030
1030
1032
1032
1026
1025
1021
1020
1021
1020
1018
1014
1011
1011
1009
1011
1012
1006
1004
1004
1007
1009
1007
1003
1000
1003
1005
1002
1001
1000
999
1000
1001
1004
1002
999
997
999
999
1003
1003
1001
997
998
1002
1003
1002
999
997
997
1000
1002
1000
998
994
997
1001
1005
1002
996
998
999
1001
1003
1001
999
998
1000
1004
1002
1000
995
997
1001
1002
1002
1000
996
994
994
999
1001
1001
997
997
996
1000
1000
999
997
993
994
994
996
994
993
990
991
993
993
992
991
989
988
990
993
988
989
988
989
992
991
990
989
985
985
991
993
990
988
986
986
986
990
989
984
981
984
988
991
988
985
982
983
985
987
989
984
983
985
990
989
988
987
983
984
987
987
985
983
982
985
986
987
986
986
983
982
985
990
989
984
983
982
987
987
987
982
981
983
987
988
987
982
982
984
987
989
988
986
983
982
985
988
986
982
983
983
986
989
986
983
982
983
986
988
987
986
986
990
994
997
995
994
994
995
1000
999
1000
998
997
996
998
1000
997
993
990
988
988
989
989
987
985
988
991
991
992
989
991
993
997
995
990
985
977
976
979
982
984
980
982
980
981
983
981
980
980
980
983
984
982
978
977
978
982
984
982
976
977
979
980
980
980
981
979
982
982
984
987
984
986
992
997
1004
1004
990
972
959
954
946
931
914
907
917
940
969
995
1015
1021
1010
978
934
901
891
896
913
935
960
973
976
980
982
986
991
990
988
989
991
997
998
995
996
993
998
999
1003
1003
999
999
999
1001
1005
1004
1001
1001
1002
1006
1005
1003
1001
999
1001
1007
1005
1007
1004
1002
1004
1010
1007
1010
1007
1005
1006
1012
1010
1008
1011
1007
1009
1010
1013
1014
1012
1009
1013
1016
1016
1016
1013
1013
1014
1016
1017
1017
1015
1015
1016
1023
1025
1022
1023
1022
1025
1030
1033
1032
1030
1027
1029
1034
1034
1036
1034
1033
1037
1038
1038
1038
1036
1033
1035
1038
1038
1036
1035
1032
1032
1033
1032
1031
1027
1022
1021
1024
1025
1021
1012
1011
1012
1011
1013
1008
1003
1004
1003
1006
1005
1003
998
997
998
1002
1001
1000
997
992
995
997
997
995
991
993
993
992
998
993
991
990
992
993
995
993
990
990
992
994
993
997
994
993
992
995
996
995
993
992
993
996
1000
996
993
994
995
994
998
997
996
993
993
993
993
994
992
991
993
992
998
996
995
994
994
996
995
996
991
991
992
994
994
994
990
989
987
990
993
990
986
984
986
987
989
986
983
984
984
986
986
983
980
979
979
983
984
984
980
979
981
981
984
982
980
977
980
981
985
980
979
978
981
983
985
982
979
976
976
981
985
977
978
973
977
977
979
980
978
974
974
978
982
980
976
974
977
979
979
978
979
976
976
981
980
982
980
975
976
980
979
975
973
974
973
980
981
978
978
974
977
977
979
979
977
974
976
977
979
976
975
975
977
978
980
979
975
974
974
977
979
977
976
972
975
979
981
980
979
980
984
984
987
987
985
983
986
989
991
990
988
991
987
986
990
987
981
978
975
982
981
979
978
975
974
979
981
982
978
976
982
986
986
982
975
971
971
971
974
975
971
968
971
973
973
971
969
967
969
969
972
970
971
969
969
970
973
970
967
966
969
971
975
971
971
970
972
973
976
975
972
973
974
978
984
986
987
991
994
989
974
956
947
937
925
914
906
904
918
943
972
1002
1017
1010
972
920
882
879
897
922
950
969
973
975
981
980
976
980
982
985
988
988
985
988
989
989
989
990
988
987
991
992
993
993
991
989
990
996
997
994
992
988
993
996
995
995
993
992
997
995
1000
998
994
995
998
1000
999
1000
996
1001
1002
1006
1007
1004
1003
1000
1005
1008
1009
1007
1006
1005
1009
1008
1013
1011
1009
1010
1015
1019
1017
1021
1020
1014
1019
1026
1025
1024
1023
1023
1024
1028
1027
1027
1025
1024
1025
1027
1027
1026
1022
1021
1022
1023
1019
1018
1012
1005
1009
1009
1009
1007
999
999
998
999
998
996
993
992
990
994
991
987
985
985
984
989
987
985
983
979
983
984
986
986
982
981
980
983
985
984
979
979
979
982
984
982
978
974
979
984
986
981
983
981
982
986
983
984
982
980
980
984
986
984
982
981
984
987
987
986
983
984
983
982
984
986
983
981
983
984
985
982
980
979
981
981
983
981
979
978
981
981
983
983
978
976
977
980
978
978
975
974
974
976
976
976
970
969
970
974
975
974
969
973
973
975
975
974
972
969
973
975
973
971
970
971
969
972
972
969
968
967
968
972
973
972
967
966
969
971
973
973
968
966
971
974
976
972
967
965
969
973
973
972
967
968
968
970
968
968
965
966
968
970
970
968
964
966
968
970
970
968
966
964
967
970
971
968
969
968
969
972
971
970
966
966
967
969
970
969
967
964
968
970
970
969
966
967
966
969
969
972
968
969
969
975
975
971
967
969
970
977
979
977
975
975
979
982
984
981
979
979
984
987
989
987
983
983
982
983
978
978
973
969
974
976
976
974
973
972
973
975
977
975
976
974
978
977
976
973
964
965
963
970
971
971
967
963
964
968
968
969
965
965
966
970
970
968
964
965
967
970
970
968
964
965
968
969
971
969
963
964
966
970
969
970
968
968
975
980
986
987
987
978
967
955
947
935
924
911
899
898
902
922
942
967
996
1007
999
967
920
885
875
882
894
911
930
948
957
965
967
967
965
966
970
974
978
975
975
977
980
981
985
983
979
984
981
988
990
989
986
986
987
989
991
989
987
985
985
989
992
989
985
988
990
987
991
989
990
990
992
995
996
994
993
991
991
995
997
995
993
993
990
998
998
995
995
995
998
1004
1002
1003
1000
1000
1004
1005
1005
1005
1003
1003
1006
1009
1008
1011
1010
1010
1011
1014
1018
1015
1013
1013
1017
1020
1022
1020
1020
1018
1017
1022
1023
1023
1020
1019
1018
1020
1024
1022
1021
1019
1019
1020
1018
1014
1011
1010
1009
1012
1011
1005
1000
1000
1003
1002
999
995
994
991
992
995
994
989
984
986
987
989
990
984
981
981
982
985
986
986
982
982
984
985
986
983
983
980
981
985
984
983
983
977
983
981
985
985
980
981
981
986
987
985
982
981
984
987
989
987
982
982
985
986
990
985
981
983
985
989
991
987
988
985
986
989
989
986
985
983
983
985
984
984
981
980
983
984
985
983
979
979
981
984
985
984
980
978
981
978
979
978
974
975
975
977
979
975
973
971
974
977
976
974
974
973
973
976
975
973
970
969
970
974
973
972
971
968
971
971
973
973
970
968
968
970
973
971
968
968
970
973
974
973
970
970
971
973
972
971
969
968
969
972
972
971
967
966
968
971
971
970
968
967
968
971
969
972
968
970
970
972
973
972
968
969
972
973
975
971
969
969
970
973
973
972
971
969
972
974
975
973
969
967
972
975
974
973
970
969
971
974
974
974
969
968
972
972
975
970
967
972
974
978
981
979
977
977
980
984
983
982
981
982
986
990
989
990
986
983
984
987
984
984
976
975
976
978
980
976
974
973
976
979
977
976
977
977
982
984
981
978
972
969
969
970
970
971
967
970
971
972
970
972
967
964
968
971
971
970
969
966
967
970
972
970
965
967
970
971
972
970
969
968
969
972
971
970
969
969
972
976
978
978
977
979
985
991
993
983
967
954
948
941
930
916
904
900
910
926
946
966
989
1003
1011
999
964
920
891
880
885
896
911
929
946
960
967
971
972
974
973
973
976
978
981
982
981
980
984
987
987
989
985
984
988
993
994
993
989
991
992
994
995
992
989
991
993
995
993
994
992
993
997
995
996
997
995
995
998
997
998
998
995
995
997
1000
1003
999
998
997
1001
1003
1005
1001
1000
1001
1004
1008
1007
1003
1003
1005
1007
1012
1014
1010
1010
1010
1014
1017
1016
1014
1011
1015
1017
1022
1020
1022
1020
1021
1024
1028
1026
1025
1022
1024
1029
1030
1031
1030
1028
1027
1031
1034
1032
1030
1029
1029
1030
1034
1036
1029
1028
1025
1023
1023
1025
1023
1018
1016
1018
1016
1014
1012
1008
1004
1006
1006
1008
1003
999
996
996
1002
1000
997
995
995
997
997
999
997
994
993
993
995
995
995
994
992
994
996
995
992
992
991
993
996
998
995
992
992
991
996
995
998
992
994
994
998
999
994
993
994
995
998
997
996
995
995
995
1001
999
999
994
995
998
1001
1003
998
995
997
996
999
1001
997
994
993
994
996
996
996
992
992
995
997
995
996
992
990
993
997
997
994
991
990
989
994
996
993
989
985
990
993
990
989
985
987
988
991
989
989
986
986
987
991
990
987
982
985
987
988
990
988
986
985
988
988
986
985
984
982
983
984
987
985
983
981
984
985
987
983
982
982
984
988
988
987
983
980
984
984
985
985
983
983
983
986
984
984
982
982
984
986
984
986
983
982
983
985
985
983
981
983
981
988
987
985
983
984
985
989
988
984
982
980
987
989
987
984
984
984
984
988
988
988
986
986
992
995
994
996
994
995
994
998
998
997
998
998
1000
1001
1003
1001
997
993
996
995
991
989
990
991
994
995
994
995
993
992
994
998
993
989
983
981
983
986
988
983
980
981
979
982
985
982
983
981
984
987
988
986
979
981
983
985
984
981
982
981
983
986
985
980
977
980
981
985
987
984
983
986
989
994
997
1000
1002
999
990
978
966
955
938
923
912
902
907
919
941
970
999
1017
1014
991
943
910
896
897
910
923
942
962
979
986
988
989
987
988
990
992
993
995
992
990
994
998
998
998
995
995
996
1004
1001
1001
999
999
1002
1008
1007
1005
1001
1002
1003
1007
1006
1004
1001
1002
1005
1007
1008
1003
1002
1003
1006
1009
1011
1006
1004
1004
1007
1009
1012
1010
1008
1010
1010
1013
1014
1012
1011
1011
1012
1017
1018
1017
1013
1013
1015
1018
1020
1017
1019
1021
1019
1021
1024
1024
1024
1024
1027
1031
1030
1027
1026
1028
1030
1032
1035
1033
1031
1030
1032
1034
1034
1033
1030
1028
1029
1033
1031
1026
1025
1022
1021
1023
1024
1018
1014
1013
1011
1014
1012
1008
1004
1003
1001
1006
1001
1001
995
996
999
1000
999
999
995
997
998
1001
999
997
995
993
995
1000
997
997
995
992
995
998
997
994
993
992
993
997
995
997
991
990
997
999
998
997
995
995
997
999
999
996
993
994
999
1000
1001
998
994
995
997
998
997
997
992
993
997
999
998
997
993
992
995
997
994
997
992
989
993
996
994
991
988
987
989
994
992
991
987
989
989
991
992
987
985
985
989
991
990
989
984
983
987
989
989
986
983
981
981
987
985
985
983
984
985
987
984
984
982
984
984
987
985
983
980
980
982
985
985
984
981
981
981
985
985
981
980
981
983
985
983
985
981
980
981
986
985
983
977
981
981
984
984
983
977
979
982
986
984
985
983
979
984
988
987
985
982
981
986
986
984
982
981
982
981
987
987
985
979
982
984
987
986
987
985
984
990
996
994
995
991
994
996
999
1000
995
995
995
1000
1002
999
995
991
991
993
993
991
987
987
986
991
993
991
990
990
990
995
997
995
990
982
982
983
985
986
984
982
982
983
985
986
984
981
980
980
984
984
981
979
979
985
986
985
985
981
981
980
986
986
984
981
983
985
988
990
989
987
991
997
1004
1008
1000
984
969
962
956
943
927
909
907
918
938
966
991
1009
1017
1012
982
935
903
890
898
915
937
958
973
979
982
989
993
994
991
989
990
994
999
998
997
997
997
999
1001
1003
1001
1000
1000
1003
1007
1006
1005
1002
1001
1005
1008
1008
1005
1005
1002
1002
1010
1011
1007
1005
1006
1008
1013
1010
1011
1010
1008
1010
1013
1008
1007
1006
1010
1012
1012
1013
1010
1010
1013
1013
1017
1016
1015
1014
1012
1017
1020
1022
1016
1015
1017
1020
1024
1024
1023
1022
1020
1026
1030
1030
1030
1028
1029
1031
1036
1036
1035
1033
1032
1037
1040
1037
1037
1036
1035
1039
1043
1041
1037
1036
1036
1039
1039
1037
1035
1032
1030
1029
1028
1028
1026
1022
1021
1019
1021
1017
1014
1010
1008
1010
1011
1009
1002
1002
1000
1002
1002
1004
1002
1001
1002
1001
1005
1005
1002
1000
998
1001
1004
1001
1000
997
992
997
1001
1000
999
995
993
999
1003
1001
998
999
997
998
1004
1003
997
999
998
999
1003
1004
1000
997
998
1001
1003
1004
1001
999
997
1001
1000
1001
999
997
997
1000
1002
1002
998
996
998
998
1002
997
997
994
995
999
999
998
997
992
993
991
993
998
993
992
991
991
995
995
992
990
991
992
997
997
992
988
986
993
992
993
990
990
989
990
992
990
991
986
987
991
993
990
987
986
985
989
990
989
987
986
985
986
988
987
989
981
983
985
988
991
986
985
985
987
990
989
984
983
978
983
990
987
987
984
985
988
990
990
988
986
984
988
991
991
991
987
986
988
991
990
988
986
985
987
992
992
989
985
985
989
992
991
987
984
981
984
992
990
987
988
991
994
996
995
996
994
996
998
1001
1002
1004
1002
1001
1005
1006
1002
997
996
995
995
998
995
990
988
988
990
995
994
991
989
992
995
998
998
997
995
993
990
991
987
982
981
980
983
986
984
984
983
980
981
986
983
984
981
979
981
987
984
985
980
979
983
986
986
984
978
979
984
985
986
983
984
984
985
992
991
992
994
997
1002
1010
1002
988
974
963
958
952
935
921
916
927
951
979
1002
1018
1023
1010
975
934
901
891
896
909
931
957
973
980
980
979
985
990
990
989
989
991
990
996
996
995
994
993
999
1002
1001
1001
999
998
1001
1006
1004
1003
1001
1003
1003
1004
1004
1004
1002
1003
1005
1008
1005
1005
1002
1003
1005
1009
1005
1005
1003
1004
1006
1010
1009
1009
1007
1009
1011
1014
1011
1013
1011
1011
1013
1017
1017
1017
1014
1016
1018
1021
1020
1017
1018
1017
1021
1025
1027
1024
1023
1024
1029
1032
1033
1032
1029
1031
1035
1037
1036
1036
1035
1035
1038
1040
1041
1034
1032
1033
1036
1038
1037
1033
1030
1027
1026
1026
1024
1021
1014
1011
1012
1014
1012
1006
1000
999
1001
1002
1003
1000
996
996
1000
1000
999
998
996
995
997
1000
997
994
993
993
995
1000
998
995
989
992
995
994
996
995
992
993
995
997
997
995
994
994
996
997
1001
998
997
991
997
1001
1002
998
996
995
996
997
1000
994
995
995
998
1002
998
995
992
994
997
998
998
993
993
990
995
996
995
994
989
988
988
992
994
991
988
988
986
991
990
985
985
985
988
989
988
988
984
985
987
990
988
987
984
983
983
988
987
985
979
982
984
984
986
986
982
983
983
986
986
985
979
980
981
983
983
984
980
981
984
987
985
984
982
981
983
985
985
984
980
981
983
986
984
983
978
980
980
984
983
981
980
978
983
985
985
982
980
981
982
986
985
983
978
978
983
985
983
982
979
978
982
984
984
982
980
981
984
986
984
983
980
980
984
988
987
987
983
986
991
993
992
994
992
991
994
997
996
996
993
994
998
1000
997
992
990
986
989
989
987
984
983
984
989
991
988
986
984
986
991
995
991
986
981
979
979
981
980
977
976
975
976
980
981
979
973
977
977
981
980
976
975
976
976
981
979
977
974
972
975
977
976
972
972
974
977
979
981
979
980
981
984
989
997
999
996
990
976
965
958
946
933
914
903
905
916
935
958
989
1007
1019
1007
970
925
894
888
893
904
916
937
955
969
977
978
978
979
981
985
988
987
987
987
986
991
993
989
992
988
990
993
995
994
993
991
989
994
997
995
994
991
993
995
995
995
994
991
991
994
998
998
994
995
996
997
1000
998
998
993
996
997
999
997
994
996
995
999
1003
1003
1003
999
999
1003
1005
1006
1004
1001
1001
1006
1011
1007
1005
1001
1002
1008
1014
1011
1009
1012
1011
1011
1017
1017
1016
1016
1017
1020
1021
1023
1022
1018
1019
1021
1025
1028
1025
1023
1023
1025
1027
1028
1027
1021
1020
1025
1025
1025
1020
1017
1014
1014
1018
1014
1011
1006
1007
1007
1008
1006
1001
997
996
998
999
996
993
987
991
993
992
990
989
986
987
989
992
990
988
985
984
987
989
990
985
979
981
984
988
988
986
982
983
984
984
983
983
979
982
984
987
986
983
980
981
982
986
987
984
982
984
986
990
987
985
984
983
985
988
987
984
981
981
985
984
986
984
982
982
985
989
987
984
982
982
983
985
986
982
982
981
982
986
982
978
977
977
980
983
980
980
976
976
975
977
979
976
974
970
974
978
976
975
970
973
975
977
974
971
972
971
973
975
972
970
968
969
972
974
973
972
969
971
974
972
972
973
969
969
971
972
971
966
971
970
969
971
973
971
966
967
971
971
972
967
967
968
971
971
974
969
968
966
971
972
971
966
968
967
969
974
972
968
967
967
969
972
971
967
967
966
970
970
970
967
967
970
972
975
972
971
970
974
976
979
980
979
977
979
978
982
985
984
981
983
982
985
986
984
982
982
982
983
980
976
973
974
974
979
979
978
976
976
981
986
983
984
980
975
977
977
972
969
966
969
973
975
973
969
966
966
970
974
973
971
968
969
972
971
969
969
966
966
969
971
971
967
965
967
971
973
972
968
970
970
972
974
977
979
979
981
988
992
996
991
973
959
953
942
930
911
894
883
890
907
928
952
975
995
1005
995
961
917
889
883
889
899
915
934
952
962
972
973
974
973
971
973
976
982
979
978
978
977
984
983
985
985
983
982
985
988
987
984
982
983
987
988
989
987
984
985
987
991
988
988
986
987
987
993
993
990
989
991
993
993
992
992
987
989
992
996
996
990
990
990
995
995
998
997
995
995
1000
1004
1002
999
998
1000
1002
1006
1007
1005
1001
1003
1007
1012
1010
1006
1007
1007
1010
1015
1016
1012
1010
1013
1017
1019
1019
1017
1017
1018
1020
1023
1024
1022
1020
1021
1024
1027
1025
1021
1017
1020
1023
1022
1018
1016
1012
1013
1015
1016
1014
1010
1006
1006
1008
1006
1004
996
996
995
996
995
990
990
986
986
990
988
988
985
983
984
987
989
988
984
984
985
986
988
987
983
979
982
985
989
987
983
982
984
986
990
988
986
980
983
985
987
988
983
982
983
989
992
986
984
980
981
985
989
986
985
984
983
986
988
987
986
983
985
989
988
989
988
984
985
987
987
989
986
985
983
984
988
987
985
980
985
986
987
987
984
981
981
983
986
984
981
977
978
981
983
983
977
974
976
979
982
981
978
979
978
980
983
981
978
976
976
979
981
981
979
972
975
974
979
980
972
971
972
975
975
976
974
974
972
973
975
969
971
972
970
973
976
974
973
972
972
975
977
976
971
970
971
972
975
975
974
971
974
974
978
976
971
972
973
976
978
977
974
972
975
975
977
976
972
968
970
974
975
974
972
970
973
976
979
979
975
972
974
978
980
978
976
974
974
977
981
978
976
972
973
976
980
977
978
979
980
986
988
986
984
983
985
987
989
992
989
987
988
988
989
986
984
981
984
985
984
981
976
975
976
980
979
978
978
976
979
982
986
985
983
978
977
978
975
973
969
969
970
974
976
974
970
970
970
975
977
973
970
969
970
969
976
972
971
967
970
973
975
973
970
971
973
974
974
974
975
973
976
979
982
987
986
988
992
997
991
975
958
947
939
928
915
910
920
940
969
999
1017
1019
990
944
902
884
888
899
916
935
956
970
974
977
978
976
976
977
983
983
982
981
984
988
988
988
984
984
986
991
995
994
992
989
989
991
995
996
993
990
992
995
998
997
993
993
995
996
1000
1000
996
993
994
1001
1003
1001
999
997
998
1002
1007
1004
1004
1003
1003
1004
1008
1011
1006
1006
1008
1009
1014
1012
1014
1012
1015
1018
1021
1024
1020
1021
1023
1024
1030
1028
1026
1026
1027
1031
1033
1033
1029
1028
1030
1030
1034
1035
1031
1030
1031
1033
1031
1029
1026
1022
1020
1019
1018
1016
1011
1009
1006
1009
1009
1003
1002
999
996
999
999
998
995
994
994
994
995
994
990
989
989
992
995
991
987
988
987
991
992
990
990
987
986
989
990
989
988
985
982
989
990
992
987
984
984
988
990
990
985
984
986
989
988
984
985
984
984
988
991
989
988
985
986
990
991
988
985
985
986
986
988
989
988
987
988
989
988
986
987
982
984
986
988
983
983
982
984
986
987
986
982
981
982
981
984
981
982
978
981
983
983
982
979
976
978
980
982
981
979
976
979
979
982
979
976
974
974
979
979
978
976
974
975
976
977
980
977
974
976
979
979
978
977
976
976
978
979
975
975
972
973
979
980
979
975
974
974
977
980
976
975
972
975
979
980
977
974
975
978
978
980
978
977
974
977
980
980
981
976
974
973
978
981
979
975
972
972
978
980
979
975
975
978
977
979
978
978
978
977
982
984
984
980
980
983
986
989
989
986
986
990
992
995
993
991
987
988
990
989
988
982
980
977
982
985
978
977
976
975
980
983
985
983
981
978
979
978
974
971
969
969
973
974
974
969
969
970
971
974
971
968
966
968
971
974
973
972
968
968
973
974
972
968
967
969
973
976
975
975
971
975
981
985
989
988
994
992
984
971
960
948
935
920
908
900
906
918
940
967
997
1015
1011
983
940
904
891
894
901
912
931
956
967
975
974
974
975
977
980
982
980
980
982
983
985
989
986
986
985
985
990
992
989
987
987
989
989
992
992
988
987
987
991
993
994
992
990
991
995
996
994
992
990
989
994
995
993
992
991
993
997
999
993
993
990
991
996
994
999
995
996
995
999
1002
1003
1003
1000
1003
1006
1008
1004
1004
1004
1008
1008
1013
1013
1010
1008
1009
1013
1017
1017
1016
1014
1018
1018
1023
1020
1021
1020
1022
1026
1027
1025
1023
1022
1026
1029
1029
1029
1024
1022
1020
1024
1021
1020
1011
1010
1009
1011
1008
1005
1001
999
1000
1001
1003
999
994
991
992
993
995
994
989
987
988
991
990
987
986
985
986
986
985
985
983
983
983
984
986
984
984
982
984
988
986
985
983
983
983
985
986
987
983
982
983
984
986
985
984
982
984
988
989
988
984
982
983
985
986
985
985
983
983
987
989
984
982
981
984
986
986
984
979
980
977
978
981
980
978
976
979
981
981
981
975
976
977
978
982
981
977
975
975
978
975
973
972
971
971
975
977
973
972
971
972
976
977
975
971
971
972
976
976
975
972
971
972
976
976
971
967
968
969
973
975
976
972
969
969
973
974
975
969
970
973
974
976
973
969
971
972
974
974
975
971
970
973
972
976
974
970
969
968
970
974
971
969
970
970
973
973
972
971
969
971
973
974
970
968
967
967
971
973
973
973
970
971
978
978
982
978
978
980
984
984
983
980
980
984
986
986
985
980
977
980
981
979
973
971
971
974
974
976
974
970
972
974
979
983
983
978
973
972
970
969
964
965
964
966
967
969
966
963
963
961
965
965
962
961
960
966
968
968
969
964
964
966
967
971
966
965
966
969
970
973
971
969
971
974
980
985
987
989
988
980
964
950
938
919
902
887
887
895
923
948
976
997
1005
988
948
904
885
887
903
922
944
958
965
970
975
979
976
975
974
974
978
984
981
981
980
983
986
987
988
985
983
984
990
991
989
989
986
989
992
993
989
985
986
989
992
993
993
991
987
987
992
993
993
993
990
992
994
995
996
991
991
992
993
998
997
995
995
998
1003
1005
1000
997
998
1001
1005
1009
1010
1006
1008
1012
1012
1014
1015
1011
1013
1013
1015
1019
1019
1017
1017
1022
1024
1024
1023
1018
1017
1021
1023
1024
1024
1021
1021
1022
1023
1024
1022
1020
1017
1017
1020
1019
1014
1008
1005
1005
1009
1006
1003
998
997
998
998
998
995
991
990
991
991
994
991
988
986
986
988
989
987
986
985
986
988
988
985
983
979
985
987
986
986
984
981
986
985
988
984
984
982
986
988
986
984
984
983
983
984
987
986
983
981
984
987
987
986
983
980
983
986
986
986
984
984
986
989
985
985
983
982
985
988
987
986
984
981
980
982
983
978
978
974
975
979
980
979
975
973
977
980
977
977
975
972
976
978
980
978
973
973
976
978
974
975
973
970
974
976
977
976
970
969
971
976
974
976
970
968
971
973
975
974
971
968
970
975
976
970
970
973
969
973
974
972
970
967
970
973
971
967
963
967
969
970
970
970
969
968
971
972
973
971
967
970
969
972
972
971
970
969
970
973
973
973
972
970
971
975
974
973
969
972
970
976
973
974
972
973
979
980
984
982
981
983
983
986
989
987
982
983
981
986
987
983
977
977
976
980
979
979
977
976
980
983
985
983
981
980
978
978
976
973
968
967
970
974
974
970
968
966
971
974
973
972
968
970
971
974
972
973
971
967
972
974
974
973
969
967
972
974
977
975
973
972
976
979
981
981
980
981
987
997
1001
999
985
970
961
958
949
937
919
910
911
926
947
969
988
1010
1024
1017
984
938
902
887
893
905
916
932
949
963
971
975
977
980
979
975
979
981
983
982
981
978
985
989
990
989
985
987
989
995
993
992
990
992
993
997
995
994
992
991
993
997
997
995
992
989
993
995
995
995
993
991
996
998
1000
996
993
996
995
999
998
999
997
992
997
1002
1003
1001
998
997
998
1002
1002
1002
998
1000
1003
1006
1007
1006
1004
1004
1009
1011
1013
1013
1011
1008
1013
1017
1018
1019
1014
1013
1017
1021
1023
1020
1022
1021
1025
1028
1030
1026
1025
1024
1027
1032
1029
1028
1028
1030
1033
1038
1039
1033
1028
1027
1027
1031
1029
1029
1022
1020
1021
1022
1018
1014
1007
1003
1008
1007
1007
1002
998
995
997
997
998
996
990
989
991
996
991
989
988
987
990
992
992
990
988
987
988
992
991
989
986
986
986
987
990
988
984
984
986
988
988
983
982
982
985
987
988
984
981
982
983
986
987
986
982
982
986
985
986
985
984
983
983
986
988
985
981
981
985
988
986
988
983
984
987
987
986
984
980
979
982
984
985
983
980
976
979
984
984
981
975
976
980
982
982
978
974
975
977
978
978
978
975
974
975
975
977
976
974
975
976
977
976
974
972
969
969
972
974
972
967
966
971
974
974
973
969
968
973
975
974
973
972
970
973
975
975
974
970
968
973
973
975
973
969
968
968
971
970
970
968
966
971
975
975
974
969
966
970
971
974
973
968
969
970
973
974
973
969
970
970
974
972
969
969
970
972
973
971
970
970
967
972
975
976
973
971
971
973
977
978
979
978
978
981
982
980
981
979
978
981
986
986
986
982
982
984
985
981
980
975
971
973
975
976
977
973
972
976
976
977
976
974
973
978
980
980
978
969
967
964
966
966
966
963
964
964
968
967
967
964
964
967
968
967
965
961
965
962
968
968
966
962
959
965
968
969
966
963
965
964
967
966
967
965
964
970
973
976
973
976
981
990
995
990
972
956
950
942
933
916
900
897
905
927
956
980
1003
1012
1003
973
932
905
893
893
898
913
935
955
966
965
966
968
971
973
973
971
969
974
979
980
982
979
979
982
985
984
984
985
982
985
986
986
987
982
986
987
990
989
987
983
981
984
988
989
986
982
987
989
988
988
990
988
987
986
992
994
993
990
993
994
996
996
995
994
994
997
997
998
995
995
997
1002
1004
1006
1003
1002
1002
1007
1008
1010
1007
1006
1007
1010
1013
1013
1013
1008
1009
1012
1014
1014
1012
1015
1014
1017
1020
1022
1023
1017
1016
1020
1023
1022
1021
1018
1018
1018
1016
1017
1014
1009
1002
1006
1007
1003
1000
995
994
995
996
992
991
988
986
988
990
988
986
980
976
982
982
986
982
976
979
981
983
982
981
977
979
979
980
980
978
973
978
980
983
983
980
977
977
978
983
979
979
978
979
981
982
984
981
975
977
978
983
982
980
977
978
980
980
981
979
975
976
980
981
979
980
975
977
979
981
980
978
973
974
978
979
979
978
975
976
977
980
978
974
973
972
975
978
975
976
969
972
971
976
973
969
967
966
971
974
973
968
967
966
970
972
973
969
968
967
967
972
973
972
967
967
970
972
973
971
969
965
967
971
972
970
964
964
970
972
973
971
967
968
971
971
972
969
967
970
971
972
971
970
965
963
967
969
966
965
965
964
968
971
972
968
967
965
968
971
969
970
965
967
967
970
971
970
967
967
969
973
974
969
965
965
966
974
973
972
968
968
970
974
976
974
973
975
980
984
982
983
977
979
982
985
985
985
982
985
987
988
986
986
983
985
982
982
979
978
975
974
976
980
979
977
974
977
977
984
984
982
978
979
980
978
973
971
969
967
972
972
974
972
969
969
971
974
972
969
970
967
971
975
977
975
970
968
972
977
975
972
969
971
973
974
975
973
971
971
972
977
977
975
975
980
986
992
995
993
980
963
952
944
933
918
899
885
882
888
901
920
940
965
989
1005
999
977
939
909
895
895
902
912
927
950
965
975
980
979
977
977
978
984
984
987
985
986
987
992
992
990
988
990
994
997
998
993
994
995
994
996
999
996
994
995
997
999
999
997
996
997
999
999
1000
1000
996
997
998
1005
1005
1000
999
1000
1001
1006
1004
1004
999
1001
1006
1006
1007
1005
1002
1004
1006
1013
1011
1010
1008
1011
1014
1013
1015
1015
1013
1012
1017
1019
1020
1020
1018
1020
1023
1025
1029
1025
1022
1023
1029
1032
1031
1030
1027
1031
1031
1038
1038
1037
1035
1034
1040
1044
1041
1042
1039
1038
1040
1040
1044
1037
1034
1034
1031
1038
1035
1031
1028
1026
1026
1025
1022
1020
1015
1013
1012
1015
1011
1009
1007
1003
1005
1004
1006
1002
996
999
1000
1003
1002
1000
997
997
996
1000
1001
997
996
994
996
999
996
993
992
990
994
995
993
994
992
994
997
998
997
996
995
992
995
999
996
990
995
992
996
999
996
995
992
990
995
997
997
993
992
993
993
999
999
996
994
992
993
1001
995
993
991
993
995
998
994
995
990
988
992
997
993
989
988
988
992
994
992
990
987
987
990
992
990
987
986
984
991
989
987
982
982
982
983
985
986
984
979
982
984
986
986
984
982
980
983
986
986
985
981
981
982
982
980
980
976
980
982
984
985
983
978
978
981
984
984
985
979
980
980
982
984
981
982
978
984
985
987
983
981
980
983
983
986
983
981
978
981
983
986
982
978
980
982
985
986
984
983
982
984
988
985
982
983
983
985
989
989
985
984
987
991
995
996
995
993
990
994
996
1000
1000
998
998
1002
1003
1001
997
995
996
994
996
988
988
985
986
991
992
992
985
985
986
991
994
996
995
992
989
987
987
985
980
979
981
983
983
982
982
979
981
983
984
985
979
979
979
978
981
983
979
980
979
979
981
981
977
979
977
979
986
985
980
982
983
987
991
994
993
994
1002
1006
1001
984
967
958
950
939
930
915
912
918
934
958
990
1011
1023
1023
1002
971
934
907
901
901
915
939
962
973
979
977
981
987
990
988
985
985
986
993
998
998
998
995
995
998
1002
1003
1002
999
999
999
1003
1005
1001
999
999
1001
1006
1004
1001
1002
999
1003
1005
1006
1007
1007
1005
1011
1013
1008
1008
1006
1009
1010
1015
1017
1013
1010
1009
1014
1018
1017
1015
1012
1010
1016
1019
1019
1020
1015
1015
1020
1026
1022
1021
1021
1020
1023
1028
1026
1027
1026
1027
1030
1035
1029
1032
1034
1033
1038
1043
1041
1041
1039
1040
1045
1048
1047
1049
1046
1046
1047
1051
1051
1047
1044
1044
1044
1046
1044
1042
1035
1033
1031
1030
1028
1022
1018
1019
1018
1019
1013
1010
1006
1005
1007
1007
1005
1002
998
998
1002
1002
1000
998
993
993
997
1000
1001
995
992
992
996
999
996
995
994
993
997
997
997
994
992
993
992
993
994
992
991
990
991
992
992
991
989
991
992
994
991
992
990
993
992
996
995
992
990
992
994
1000
996
993
990
990
992
995
993
989
990
988
992
994
994
991
988
988
989
993
991
987
984
986
988
990
990
986
985
983
987
989
987
984
981
984
985
985
984
985
981
981
981
984
984
981
980
977
981
985
982
979
975
979
982
984
985
981
977
979
979
983
982
979
976
975
980
980
980
978
976
977
978
980
980
977
976
978
976
983
982
978
977
978
978
979
980
976
976
977
979
980
981
977
977
976
978
979
980
978
974
976
979
981
981
976
977
979
978
979
984
982
980
983
988
985
985
988
984
985
986
992
992
993
992
987
992
995
994
988
983
981
984
986
985
983
981
982
983
985
986
984
985
988
985
987
985
979
971
972
974
976
978
974
974
974
976
978
976
972
970
973
975
979
978
972
971
970
974
977
974
970
970
970
975
978
975
972
970
978
979
981
983
986
987
993
1001
1000
989
972
957
948
935
919
903
897
904
923
954
990
1014
1019
1003
959
921
903
902
907
920
942
965
976
980
975
975
978
983
985
987
985
985
985
989
993
993
990
988
990
992
994
992
990
988
993
994
996
995
992
989
989
992
996
995
994
989
991
992
996
995
994
994
995
995
1000
998
995
993
994
995
1000
999
995
994
997
1000
1003
1002
1001
998
1001
1003
1006
1006
1005
1003
1007
1010
1013
1013
1011
1011
1011
1015
1019
1019
1017
1017
1014
1019
1024
1024
1021
1021
1020
1025
1029
1029
1026
1022
1024
1030
1031
1031
1028
1024
1026
1030
1028
1030
1025
1022
1019
1020
1020
1016
1009
1007
1006
1006
1007
1003
997
994
997
996
1001
999
994
990
991
990
995
994
991
987
987
989
991
990
986
986
985
988
989
988
988
984
985
988
993
993
989
985
986
987
990
987
987
989
987
990
993
990
986
985
985
984
989
987
987
985
986
988
989
989
987
984
987
989
989
986
987
984
985
988
990
990
984
983
983
986
985
987
984
983
983
984
987
989
983
982
983
986
988
985
982
979
980
984
985
985
980
978
980
982
982
982
977
975
975
977
980
979
978
974
975
979
980
980
976
973
976
979
981
979
976
974
976
979
980
981
978
978
978
980
979
981
979
977
978
980
981
981
977
975
978
981
982
979
978
976
976
979
982
982
978
975
976
978
982
981
978
975
974
977
982
982
978
977
976
981
983
983
980
979
980
980
985
984
980
980
984
985
989
989
988
987
990
993
996
993
992
991
994
997
999
997
993
991
992
993
993
991
987
983
984
986
990
990
986
983
986
990
994
992
990
988
988
983
984
980
977
976
978
980
984
983
979
978
981
982
985
984
980
980
980
982
985
982
980
979
979
982
982
983
979
977
979
980
986
981
983
982
985
991
996
998
1001
994
983
968
959
947
932
913
896
889
892
904
920
941
966
992
1011
1013
989
953
921
907
908
913
923
939
961
978
985
986
987
987
990
992
993
992
995
993
995
998
1002
1004
1002
1001
1002
1004
1007
1007
1005
1002
1005
1008
1010
1010
1008
1004
1005
1009
1011
1011
1006
1005
1008
1011
1014
1012
1010
1007
1009
1013
1015
1014
1013
1014
1015
1019
1019
1022
1020
1019
1021
1024
1025
1025
1022
1020
1022
1028
1030
1031
1031
1030
1033
1038
1040
1041
1038
1040
1044
1045
1050
1053
1051
1049
1051
1054
1055
1056
1054
1054
1054
1056
1059
1055
1048
1047
1049
1047
1045
1041
1037
1034
1030
1031
1030
1028
1022
1020
1019
1018
1018
1018
1015
1011
1012
1012
1012
1011
1011
1006
1007
1013
1013
1013
1007
1006
1005
1007
1009
1008
1005
1005
1003
1006
1007
1010
1005
1005
1006
1007
1010
1011
1008
1004
1006
1008
1011
1010
1006
1003
1006
1008
1011
1009
1009
1003
1003
1006
1008
1007
1007
1004
1004
1008
1013
1008
1007
1003
1008
1011
1011
1009
1009
1006
1005
1009
1011
1008
1006
1003
1007
1007
1007
1002
1005
998
999
1005
1002
1005
1001
998
997
1003
1004
1003
1000
999
1000
1001
1003
1004
999
996
996
1000
999
998
996
993
993
997
1001
999
996
995
996
997
997
999
995
990
992
996
999
997
993
992
993
995
993
994
992
990
989
994
996
995
991
990
988
993
996
995
995
992
994
995
993
994
995
991
995
995
997
994
994
993
992
994
992
996
995
992
994
994
995
995
993
989
992
992
993
995
990
988
991
995
996
992
993
989
991
995
996
995
992
989
990
995
997
997
994
993
998
1003
1006
1004
1006
1003
1005
1009
1009
1008
1006
1006
1007
1010
1010
1009
1006
1002
1004
999
1004
1000
996
995
993
999
1001
998
999
995
1000
1000
1006
1004
1003
1000
1002
1002
1007
1002
996
989
987
989
993
995
987
987
989
992
993
992
990
987
989
990
991
990
986
986
987
991
992
989
986
985
986
989
990
988
984
984
986
988
991
991
990
991
992
996
999
1002
1005
1006
1008
1002
988
973
967
953
943
927
913
910
914
932
960
994
1021
1033
1018
979
936
913
907
908
914
926
946
969
984
989
987
987
994
993
998
996
992
994
995
1001
1004
1001
1002
1001
1002
1006
1008
1009
1005
1004
1007
1007
1007
1007
1006
1004
1006
1012
1011
1010
1008
1006
1007
1010
1013
1011
1009
1009
1008
1014
1019
1016
1014
1012
1013
1016
1020
1016
1015
1013
1014
1016
1020
1018
1016
1013
1016
1021
1022
1022
1019
1020
1023
1025
1027
1028
1025
1025
1025
1029
1031
1031
1027
1031
1032
1036
1040
1040
1038
1037
1037
1041
1045
1047
1043
1045
1047
1049
1052
1049
1049
1050
1050
1051
1053
1051
1047
1044
1045
1047
1044
1039
1036
1031
1029
1029
1029
1024
1021
1018
1018
1018
1017
1013
1008
1005
1008
1008
1007
1007
1001
1000
1002
1004
1006
1001
1001
999
1001
1002
1002
1002
997
996
996
1002
1003
1000
995
994
994
999
998
998
993
992
995
996
996
996
993
991
995
996
998
998
995
992
990
992
995
994
991
988
989
991
996
996
991
991
991
999
998
998
992
987
992
995
997
995
991
988
992
994
995
994
995
990
993
996
997
990
992
988
986
993
993
993
992
988
991
992
992
990
991
988
989
991
992
990
985
983
983
983
988
986
985
982
983
986
987
989
981
982
985
986
986
983
980
978
983
983
985
984
981
978
979
982
982
982
982
981
983
983
985
981
979
979
979
985
986
984
983
981
979
982
984
983
981
978
980
985
986
983
981
979
980
984
986
983
982
981
981
984
986
983
981
981
982
985
986
985
980
980
981
984
985
986
985
987
988
990
992
994
992
991
991
994
999
1001
998
998
1000
1000
1000
1001
996
993
993
990
990
987
984
986
988
989
991
992
989
988
993
993
999
994
989
983
982
984
983
985
984
981
982
984
985
983
982
977
979
980
981
980
979
978
979
985
987
981
978
977
978
982
985
982
982
978
981
985
988
987
986
986
987
998
1000
1001
1005
1008
1001
992
980
966
954
940
920
908
907
915
931
955
984
1013
1028
1023
994
952
924
912
915
920
932
947
967
983
987
987
984
986
987
991
993
993
993
993
996
997
1000
999
995
996
998
1002
1004
1005
1002
999
1000
1004
1007
1006
1004
1005
1003
1006
1009
1009
1005
1003
1005
1009
1011
1011
1006
1006
1005
1008
1011
1011
1006
1005
1006
1008
1009
1011
1008
1006
1006
1010
1011
1011
1010
1010
1013
1014
1018
1019
1019
1016
1018
1017
1020
1020
1018
1018
1022
1023
1025
1025
1024
1023
1025
1030
1033
1033
1031
1031
1036
1037
1041
1038
1039
1039
1040
1043
1046
1044
1041
1042
1041
1044
1045
1043
1036
1038
1040
1040
1037
1032
1032
1027
1026
1027
1028
1022
1017
1015
1014
1015
1015
1009
1007
1006
1004
1006
1007
1003
1002
1001
1000
1002
1004
1002
998
998
998
999
1000
1000
996
995
998
1002
1001
999
997
997
994
997
998
997
997
996
995
1000
1001
998
998
994
995
998
999
999
997
996
996
999
998
998
996
993
997
1001
1002
999
996
994
998
1000
1002
997
999
996
998
998
1000
998
994
994
996
999
999
997
995
994
997
1000
998
999
996
995
996
1000
999
995
993
991
996
998
998
994
990
991
993
997
997
994
988
991
993
996
993
995
989
987
989
991
993
993
989
987
990
992
993
991
990
988
990
994
995
990
987
988
989
990
993
992
988
988
989
991
992
991
985
985
987
990
992
992
986
987
990
993
992
989
988
984
986
988
991
989
987
985
990
991
991
989
987
987
989
992
994
990
990
988
989
993
994
993
988
988
990
994
994
993
992
991
994
996
1002
1002
998
999
999
1002
1005
1003
999
1003
1004
1009
1008
1008
1004
1001
1002
1005
1003
1001
997
995
995
996
1000
998
996
994
994
1000
1002
1001
1000
998
998
1002
1001
996
990
988
989
991
990
992
990
989
992
993
997
993
988
988
991
990
992
991
987
986
986
991
991
989
986
988
990
993
995
991
990
989
991
997
997
997
995
996
1007
1011
1015
1009
994
975
966
959
948
927
911
899
905
921
939
965
987
1008
1023
1019
992
952
922
913
918
928
944
963
977
991
992
998
1000
999
999
996
999
1004
1008
1006
1004
1004
1007
1011
1012
1008
1007
1010
1011
1015
1016
1014
1012
1010
1014
1014
1015
1012
1010
1011
1013
1014
1017
1014
1013
1013
1019
1018
1020
1021
1019
1018
1021
1022
1024
1025
1022
1020
1022
1028
1029
1027
1023
1026
1028
1030
1031
1030
1028
1029
1032
1036
1039
1036
1034
1035
1037
1042
1043
1044
1043
1045
1047
1050
1051
1055
1051
1050
1055
1057
1058
1058
1056
1053
1059
1064
1064
1061
1057
1056
1060
1063
1063
1061
1057
1056
1056
1058
1056
1052
1048
1045
1044
1044
1042
1039
1035
1031
1031
1030
1029
1027
1022
1019
1019
1021
1021
1018
1012
1013
1010
1019
1017
1017
1013
1011
1012
1014
1013
1013
1010
1009
1008
1014
1014
1012
1009
1007
1007
1010
1010
1009
1008
1008
1007
1011
1011
1010
1007
1004
1009
1010
1010
1011
1005
1007
1011
1014
1013
1011
1005
1009
1008
1013
1011
1010
1006
1009
1008
1014
1013
1013
1010
1008
1011
1013
1012
1012
1008
1008
1010
1012
1012
1011
1010
1008
1012
1013
1014
1011
1008
1008
1005
1012
1011
1010
1005
1006
1009
1008
1009
1006
1004
1004
1003
1008
1009
1007
1003
1001
1001
1007
1006
1002
1001
1000
1002
1005
1005
1005
999
998
1000
1003
1003
1003
1000
1000
1000
1002
1002
1000
996
995
998
1001
1003
1001
1000
996
996
1001
1004
1002
999
998
1002
1001
1005
1001
998
997
998
1002
1001
1000
995
997
998
998
998
997
993
995
997
1002
1001
999
995
995
998
1000
999
999
995
996
997
1001
999
999
998
994
999
1003
1003
1005
1006
1005
1008
1014
1012
1011
1007
1008
1009
1015
1018
1016
1012
1011
1011
1011
1012
1007
1002
1001
1001
1003
1004
1000
1001
1000
999
1003
1004
1003
1003
1006
1004
1008
1009
1007
999
996
995
997
998
996
996
994
995
998
998
996
990
992
992
996
997
997
991
989
991
994
995
992
993
989
994
995
996
993
991
992
993
998
996
998
995
998
1001
1007
1014
1016
1012
1001
986
978
968
959
941
923
911
915
926
943
965
994
1021
1038
1031
995
944
910
906
915
932
954
974
985
995
1002
1005
1006
1002
1001
1006
1010
1011
1011
1010
1011
1012
1016
1015
1013
1011
1015
1016
1015
1019
1017
1016
1013
1018
1019
1020
1019
1020
1020
1020
1022
1022
1023
1019
1019
1018
1024
1027
1023
1022
1020
1021
1023
1025
1026
1022
1022
1024
1029
1026
1028
1023
1027
1031
1032
1034
1032
1028
1029
1033
1034
1037
1038
1036
1036
1040
1045
1045
1044
1042
1044
1047
1051
1054
1051
1052
1055
1054
1060
1062
1060
1057
1058
1063
1064
1064
1061
1060
1056
1057
1060
1058
1054
1047
1044
1041
1043
1041
1037
1032
1028
1028
1026
1027
1022
1019
1017
1016
1017
1015
1016
1010
1010
1010
1014
1012
1011
1007
1005
1007
1010
1011
1008
1003
1003
1006
1008
1008
1007
1004
1003
1006
1010
1008
1006
1003
1003
1004
1007
1004
1004
1002
999
1002
1006
1003
998
997
998
998
1003
1003
1001
996
997
999
1004
1002
999
997
999
1002
1004
1004
1001
997
999
1001
1001
1003
999
994
996
997
1002
1001
998
995
996
999
1003
1003
1000
998
998
999
1001
999
997
992
991
993
998
997
995
992
992
993
995
994
992
990
986
989
993
992
991
988
986
986
992
991
990
988
987
988
992
989
987
986
985
988
989
989
987
983
982
987
989
988
988
984
982
983
989
990
990
985
985
986
990
988
987
981
982
986
989
988
986
984
984
985
989
986
988
982
984
986
989
988
990
986
986
991
997
997
996
993
995
995
999
1001
999
1000
999
1002
1003
1003
997
992
991
993
993
993
990
988
988
993
994
994
992
990
990
993
998
996
991
987
984
984
984
985
984
983
981
982
984
986
986
983
982
984
985
983
983
982
980
983
985
985
984
979
979
980
986
985
981
980
981
983
987
987
988
990
996
1006
1012
1008
994
978
967
955
944
929
911
904
910
926
947
979
1001
1020
1023
1004
966
927
907
904
911
929
954
976
985
984
986
990
995
996
993
993
993
995
998
999
1000
997
999
1001
1002
1002
1002
998
996
998
1004
1006
1005
1002
1005
1005
1008
1010
1006
1003
1003
1005
1008
1009
1006
1004
1005
1007
1010
1011
1008
1006
1003
1004
1010
1009
1009
1002
1007
1011
1014
1016
1010
1009
1007
1010
1017
1016
1014
1014
1014
1020
1021
1023
1019
1018
1021
1023
1026
1025
1028
1023
1024
1023
1030
1030
1029
1027
1030
1034
1037
1039
1036
1037
1034
1039
1044
1044
1041
1039
1040
1044
1048
1050
1048
1041
1039
1042
1045
1043
1039
1036
1031
1032
1034
1029
1025
1018
1020
1020
1020
1017
1013
1009
1008
1009
1009
1009
1006
1002
1002
1003
1007
1006
1005
999
997
1001
1004
1005
1002
999
996
1000
1002
1004
1000
998
999
1002
1004
1006
1002
1000
997
1001
1002
1004
999
999
999
1001
1004
1002
996
998
999
999
1002
1002
1000
999
1000
1003
1003
1001
999
997
998
1000
1003
1000
1001
997
998
999
1003
1003
1001
997
994
995
999
999
999
995
996
1000
1001
998
998
992
992
992
998
996
992
992
993
993
996
996
996
994
990
993
995
996
995
992
992
993
995
994
994
994
991
994
994
996
991
989
990
994
997
996
993
989
991
990
994
994
994
992
990
991
995
996
993
991
989
991
994
996
993
991
992
992
995
995
994
992
992
992
998
997
996
992
992
997
996
999
998
995
999
1003
1008
1010
1006
1004
1004
1008
1011
1010
1010
1006
1009
1007
1005
1006
1001
996
995
997
1000
1001
998
997
995
1000
1002
1000
999
999
1001
994
997
992
989
989
991
994
995
994
991
989
988
990
992
993
988
988
988
992
994
994
990
991
987
990
994
995
993
991
990
994
997
997
992
993
995
994
999
1004
1000
1007
1011
1012
1005
987
972
958
947
935
918
903
900
906
925
950
982
1007
1019
1020
997
961
933
916
912
917
930
956
979
993
994
996
996
998
1005
1004
999
1000
1003
1008
1012
1012
1009
1010
1007
1012
1015
1016
1016
1012
1012
1015
1016
1018
1015
1013
1014
1016
1018
1018
1017
1016
1017
1016
1021
1021
1018
1019
1018
1021
1026
1024
1022
1022
1021
1024
1027
1029
1025
1021
1024
1025
1030
1031
1028
1028
1027
1031
1036
1034
1031
1031
1030
1035
1039
1039
1036
1039
1039
1043
1047
1047
1043
1046
1046
1047
1053
1054
1052
1051
1052
1056
1058
1057
1059
1057
1059
1061
1067
1066
1067
1063
1062
1065
1069
1069
1064
1061
1061
1060
1063
1060
1056
1051
1049
1050
1049
1044
1037
1037
1034
1035
1037
1033
1030
1022
1023
1024
1025
1023
1019
1018
1015
1017
1020
1018
1017
1014
1013
1016
1020
1016
1015
1011
1011
1014
1016
1016
1013
1010
1008
1014
1017
1013
1012
1011
1009
1011
1014
1015
1011
1008
1009
1010
1011
1011
1011
1008
1011
1012
1016
1009
1007
1006
1008
1010
1014
1013
1009
1007
1008
1011
1013
1013
1011
1011
1011
1012
1015
1016
1012
1008
1008
1013
1017
1016
1012
1009
1010
1011
1013
1015
1012
1009
1010
1009
1013
1014
1010
1009
1010
1011
1015
1013
1011
1009
1008
1009
1010
1009
1010
1006
1005
1006
1009
1008
1002
1003
1002
1005
1007
1004
1001
1001
1001
1003
1005
1004
1003
1000
999
1002
1006
1005
1003
999
998
1002
1007
1003
1001
998
995
1000
1002
1002
998
998
992
996
999
1000
999
997
995
1001
1004
1004
1002
999
999
1001
1005
1002
1000
997
998
1000
1004
1000
1001
998
997
1000
1001
1000
999
998
998
1000
1005
1002
1001
999
995
1000
1003
1001
1002
999
1001
1003
1002
1007
1004
1001
1004
1012
1015
1014
1010
1011
1010
1014
1017
1013
1016
1012
1013
1015
1018
1016
1013
1010
1008
1008
1010
1008
1004
1003
1004
1005
1010
1008
1007
1005
1005
1011
1012
1012
1011
1007
1000
1000
1002
1000
999
996
997
1000
1001
1000
997
995
997
1000
1001
1001
998
995
995
996
1001
997
996
995
996
996
996
999
995
994
997
999
1004
1003
1000
1000
1001
1004
1010
1013
1016
1016
1016
1007
997
982
970
957
943
930
919
918
922
939
963
993
1022
1036
1035
1012
969
936
920
918
923
933
950
975
994
999
1000
998
1000
1005
1010
1010
1006
1006
1008
1012
1014
1013
1015
1016
1016
1017
1020
1020
1017
1015
1018
1019
1023
1022
1019
1014
1016
1016
1020
1017
1014
1015
1015
1018
1021
1017
1018
1016
1018
1020
1023
1023
1020
1020
1019
1023
1026
1021
1022
1020
1022
1025
1027
1027
1022
1020
1024
1026
1031
1031
1029
1027
1028
1028
1035
1033
1033
1031
1032
1035
1039
1036
1036
1035
1035
1041
1045
1047
1046
1045
1046
1049
1053
1053
1051
1052
1054
1058
1059
1059
1056
1055
1055
1059
1063
1063
1059
1057
1056
1056
1058
1058
1052
1047
1045
1046
1047
1041
1037
1031
1030
1029
1030
1026
1023
1019
1019
1021
1019
1019
1016
1010
1010
1013
1016
1012
1011
1007
1008
1009
1010
1011
1007
1005
1005
1008
1010
1010
1007
1005
1004
1006
1011
1010
1006
1004
1004
1007
1007
1004
1002
997
999
1002
1002
1001
999
998
999
1003
1004
1006
998
997
997
1000
1006
1006
1003
997
999
1003
1008
1006
1004
999
999
1003
1005
1004
1002
1001
1001
1004
1005
1004
1003
999
999
1002
1005
1005
1002
996
1000
1002
1001
1003
998
996
997
998
1002
999
996
993
994
997
997
994
993
988
991
993
996
998
995
990
989
993
992
992
990
989
988
992
991
991
989
986
989
990
991
989
989
986
988
991
992
991
988
987
988
988
990
990
989
985
982
987
991
991
987
983
980
984
988
985
985
980
984
983
990
985
986
984
982
983
989
987
983
981
981
982
987
986
982
979
982
988
988
990
987
991
992
994
997
997
993
990
993
998
1003
1003
1001
999
994
999
1002
998
995
989
986
990
988
991
987
985
986
990
988
991
989
990
991
993
993
993
984
980
980
982
984
982
982
978
979
979
983
982
979
979
978
982
983
983
976
976
977
980
982
984
982
979
978
979
982
983
983
983
982
985
989
989
989
990
993
1000
1007
1010
1003
990
979
967
962
948
929
910
901
906
924
945
971
995
1019
1029
1010
970
930
905
904
908
923
942
959
970
979
984
988
990
987
986
987
990
994
992
992
988
992
994
1001
999
1000
996
996
1001
1004
1001
999
995
998
1001
1003
1003
999
996
998
1001
1000
1000
999
998
998
1004
1002
1001
1002
1000
1000
1004
1005
1005
1003
1001
1003
1007
1008
1009
1000
1002
1003
1007
1008
1007
1005
1004
1006
1010
1013
1013
1013
1012
1011
1013
1018
1018
1016
1016
1016
1020
1019
1023
1019
1018
1021
1021
1025
1025
1024
1021
1025
1029
1033
1031
1031
1028
1030
1030
1037
1036
1033
1032
1032
1038
1041
1040
1036
1034
1034
1036
1037
1032
1031
1024
1023
1024
1021
1019
1016
1010
1011
1011
1008
1008
1005
1003
999
1001
1004
1003
999
993
994
997
999
996
994
990
991
994
997
996
992
989
991
993
994
994
993
990
992
994
999
995
990
988
989
992
995
993
993
992
992
993
996
992
990
987
988
989
995
995
992
991
992
995
995
994
988
990
992
997
997
998
993
993
993
996
997
999
994
990
991
994
994
996
995
992
990
992
992
989
991
985
987
989
993
992
990
988
988
990
992
992
989
987
985
991
992
986
987
983
985
985
988
987
985
981
982
984
988
984
985
985
984
986
986
987
984
982
982
983
986
984
984
985
984
986
987
987
984
984
983
984
988
985
986
982
980
986
987
988
986
980
982
987
988
989
983
984
982
984
987
986
982
981
983
985
987
986
984
982
983
986
989
989
989
986
986
990
992
995
997
995
999
1004
1002
998
998
1000
999
1004
1008
1005
1001
1000
999
999
999
997
993
990
990
992
992
992
988
988
990
992
998
1000
1002
1001
999
1001
1002
997
993
986
986
986
990
991
987
984
985
987
990
988
988
984
986
986
987
987
986
981
985
987
989
989
989
987
990
990
994
993
990
988
987
992
995
995
993
991
996
999
1006
1005
1007
1008
1002
994
981
970
959
947
933
917
910
907
914
932
956
986
1013
1027
1023
995
959
931
916
913
919
932
956
977
992
997
996
997
997
999
1001
1001
1001
1003
1007
1012
1016
1014
1011
1011
1012
1016
1019
1016
1015
1014
1013
1013
1016
1017
1014
1010
1015
1017
1018
1017
1019
1019
1019
1023
1028
1026
1024
1025
1029
1030
1033
1032
1029
1029
1032
1035
1035
1033
1031
1032
1033
1036
1037
1036
1038
1035
1039
1042
1045
1047
1045
1042
1044
1050
1052
1052
1049
1049
1052
1055
1057
1056
1053
1054
1056
1061
1065
1065
1066
1065
1066
1069
1073
1074
1072
1070
1073
1077
1076
1076
1075
1071
1073
1075
1076
1072
1066
1062
1063
1063
1061
1057
1052
1048
1043
1044
1042
1041
1036
1034
1032
1032
1033
1030
1026
1025
1026
1028
1030
1026
1024
1023
1023
1023
1024
1023
1017
1018
1020
1022
1021
1020
1019
1016
1017
1018
1022
1019
1016
1014
1014
1020
1019
1017
1016
1015
1017
1017
1021
1019
1019
1013
1015
1019
1019
1018
1015
1013
1016
1017
1016
1017
1015
1010
1014
1015
1018
1018
1015
1012
1015
1017
1020
1017
1016
1011
1016
1016
1020
1019
1018
1015
1015
1016
1019
1016
1015
1011
1012
1015
1012
1014
1012
1009
1011
1012
1012
1012
1009
1004
1007
1009
1015
1012
1008
1007
1006
1006
1010
1010
1007
1005
1006
1006
1010
1007
1005
1001
1004
1004
1006
1004
1001
1000
1000
1001
1002
1000
997
993
997
997
1002
1002
999
997
996
1001
1006
1003
1002
1000
1003
1007
1004
1004
1000
998
1001
1003
1007
1005
1002
998
1001
1002
1004
1003
1001
996
997
1000
1002
1000
998
997
999
1003
1004
1002
999
1001
1002
1004
1006
1010
1010
1005
1010
1013
1015
1014
1010
1010
1012
1016
1021
1019
1016
1011
1009
1014
1014
1012
1003
999
1001
1006
1008
1006
1007
1004
1004
1008
1005
1009
1006
1004
1004
1004
1003
996
990
991
993
994
997
995
992
992
992
996
998
998
992
996
994
995
995
997
996
991
990
993
996
995
993
991
991
995
997
995
993
991
996
1002
1010
1015
1019
1014
1005
992
981
963
943
924
909
912
929
954
986
1011
1031
1035
1007
961
921
904
913
926
949
972
986
994
996
1001
1005
1004
1003
1003
1006
1009
1010
1012
1010
1008
1009
1014
1014
1014
1014
1009
1012
1016
1016
1015
1012
1012
1017
1020
1020
1019
1018
1014
1016
1022
1022
1019
1017
1017
1017
1019
1021
1019
1018
1015
1016
1017
1020
1019
1020
1020
1022
1027
1027
1025
1022
1025
1024
1026
1028
1025
1024
1025
1027
1032
1035
1031
1027
1024
1032
1036
1038
1039
1038
1038
1040
1045
1050
1049
1048
1048
1052
1054
1059
1058
1054
1055
1053
1055
1060
1058
1056
1054
1056
1058
1061
1056
1054
1049
1048
1048
1046
1045
1042
1036
1036
1036
1034
1032
1027
1022
1025
1025
1022
1020
1016
1014
1014
1015
1016
1013
1009
1005
1007
1009
1013
1010
1006
1005
1005
1008
1008
1007
1005
1002
1003
1007
1008
1007
1004
1001
1005
1006
1010
1006
1004
1003
1005
1008
1008
1004
1004
1001
1002
1004
1006
1003
1000
1000
1003
1003
1006
1003
1004
1004
1004
1007
1010
1007
1003
1003
1002
1004
1008
1007
1003
998
998
999
1002
1005
1004
1003
1004
1003
1007
1004
1003
998
1000
1001
1000
1000
996
996
993
998
998
996
995
992
991
993
997
999
996
993
994
998
995
995
994
992
993
995
995
995
993
992
991
994
998
993
990
990
991
993
996
993
989
988
987
987
988
990
987
987
987
992
993
993
991
991
989
994
995
991
992
990
990
994
993
991
990
988
988
991
993
992
988
984
989
990
992
991
986
982
990
993
997
994
996
995
997
1001
999
1000
1001
998
1002
1006
1005
1002
1002
998
999
999
997
997
993
990
987
992
995
995
990
989
992
996
1000
996
996
995
997
996
995
990
986
981
982
984
987
986
983
981
983
985
985
984
982
981
983
987
988
988
986
985
985
987
987
986
985
982
985
987
985
986
984
981
984
989
991
994
992
995
1002
1011
1010
999
983
967
957
949
932
915
897
896
913
938
967
993
1013
1025
1017
983
942
913
901
906
920
946
965
977
979
980
988
992
995
996
993
992
996
1000
999
1003
1000
1000
1003
1005
1006
1006
1002
999
1000
1005
1007
1005
1001
1000
1002
1007
1007
1008
1005
1002
1004
1009
1010
1006
1005
1004
1006
1006
1010
1009
1003
1003
1007
1010
1011
1011
1006
1005
1007
1008
1015
1014
1010
1011
1014
1019
1020
1019
1017
1018
1017
1021
1023
1024
1024
1022
1025
1028
1032
1030
1030
1028
1031
1036
1038
1037
1037
1036
1038
1043
1045
1045
1044
1042
1042
1045
1048
1044
1039
1036
1037
1037
1039
1034
1029
1026
1027
1027
1024
1023
1018
1014
1013
1016
1013
1009
1007
1003
1004
1005
1004
1001
1001
994
996
1001
1002
998
997
993
999
998
1003
999
997
995
997
998
1001
1001
997
996
999
999
1000
997
994
992
995
996
998
996
994
995
998
1002
1002
1001
997
994
996
996
1000
1001
996
993
996
997
999
998
991
990
991
995
995
994
992
991
992
995
996
992
990
988
989
994
995
992
989
988
988
992
993
989
985
987
986
990
991
989
986
983
984
985
988
988
983
984
984
989
991
990
985
983
985
986
988
987
983
981
982
987
986
986
983
981
983
986
988
986
984
983
983
986
987
987
984
985
987
989
988
989
986
986
986
987
988
986
985
981
985
987
989
988
984
980
983
984
984
982
980
980
986
988
992
990
986
984
990
993
995
996
994
994
995
999
1002
997
999
998
997
999
1005
1002
999
999
1000
1003
1001
999
995
989
992
994
996
993
992
990
992
994
995
993
993
991
994
999
1001
996
993
987
987
986
985
984
984
981
984
985
986
986
987
985
984
987
989
985
984
982
984
986
986
985
982
980
981
983
987
984
981
981
982
986
987
986
985
987
990
996
1000
1002
1001
1007
1008
1000
981
967
955
944
933
920
911
910
919
932
955
987
1013
1024
1021
993
955
925
910
908
912
925
946
970
982
986
986
988
990
997
997
996
995
994
996
995
998
998
999
999
999
1003
1008
1007
1006
1003
1003
1007
1009
1009
1006
1002
1006
1011
1011
1009
1007
1003
1005
1011
1010
1007
1004
1003
1007
1011
1013
1011
1010
1008
1012
1012
1015
1015
1013
1008
1010
1017
1018
1017
1013
1012
1017
1019
1017
1017
1015
1017
1018
1021
1024
1020
1018
1016
1021
1025
1027
1026
1026
1027
1029
1033
1033
1030
1030
1033
1037
1041
1042
1044
1041
1040
1044
1048
1050
1050
1050
1046
1049
1051
1054
1051
1046
1049
1050
1051
1053
1050
1045
1042
1039
1041
1042
1040
1032
1031
1030
1029
1029
1025
1019
1016
1016
1016
1017
1013
1008
1006
1005
1008
1005
1004
998
999
999
1000
1002
1001
995
997
999
1002
1002
999
996
995
996
999
1003
1000
997
997
997
998
1000
999
996
994
995
999
999
998
993
992
992
994
994
992
991
990
992
995
1000
997
994
994
996
998
1001
998
995
993
994
998
998
994
995
992
993
997
998
998
996
994
994
995
999
996
995
995
999
1001
1001
999
996
994
995
999
1000
999
997
994
996
998
998
997
994
991
992
994
994
990
988
987
987
990
991
991
986
986
989
992
994
991
987
986
989
993
992
990
986
985
989
989
991
989
986
985
987
989
987
984
984
982
983
986
986
988
984
981
985
989
991
987
985
983
985
989
987
987
980
979
984
988
988
984
984
983
985
987
984
983
983
979
981
986
986
985
983
980
983
986
983
985
985
984
985
989
992
990
988
990
993
996
999
998
995
992
996
998
1002
998
998
1000
1000
1001
1002
1001
999
997
997
997
998
994
987
986
992
994
998
996
990
990
994
997
1001
997
994
988
990
993
987
986
982
985
984
985
984
982
980
981
981
987
984
986
982
983
983
985
988
987
982
984
984
987
987
987
982
982
984
985
986
986
981
981
986
988
991
991
992
996
998
1004
1013
1009
1002
987
973
965
957
938
917
901
897
905
922
942
966
991
1011
1017
1006
969
926
902
898
907
919
935
955
972
984
991
994
991
993
993
995
998
999
999
996
996
998
1003
1005
1002
999
999
1002
1007
1006
1006
1005
1002
1007
1008
1010
1010
1007
1007
1008
1009
1010
1006
1006
1004
1008
1012
1014
1010
1009
1007
1010
1013
1014
1010
1008
1004
1010
1011
1011
1015
1011
1013
1014
1016
1020
1019
1016
1015
1016
1020
1021
1020
1017
1017
1021
1023
1025
1024
1021
1023
1023
1028
1028
1028
1027
1029
1032
1036
1037
1035
1033
1034
1036
1041
1043
1045
1042
1043
1047
1047
1050
1050
1049
1048
1049
1053
1053
1050
1048
1045
1043
1046
1046
1043
1037
1033
1034
1034
1036
1030
1024
1022
1020
1022
1023
1019
1015
1010
1012
1014
1014
1010
1007
1004
1005
1007
1004
1005
1002
1001
1003
1001
1005
1004
1003
997
1001
1005
1006
1005
1002
1000
1002
1003
1000
1002
997
997
998
1000
1002
1000
995
992
997
1001
1001
997
994
995
996
995
998
995
995
993
995
998
1000
1001
998
998
999
998
998
997
998
997
995
1000
1000
1001
997
995
995
998
997
998
993
991
994
995
999
996
992
993
994
996
996
989
988
988
988
996
995
992
987
985
985
988
988
987
985
984
984
987
989
988
983
982
987
988
989
988
982
982
985
987
986
984
980
981
979
983
986
984
979
977
981
982
980
981
981
981
985
986
987
984
981
980
981
985
983
984
981
980
981
983
982
982
979
978
978
984
981
982
980
978
982
983
984
986
981
982
984
985
986
986
978
982
984
990
990
990
989
985
987
993
994
990
990
991
996
999
999
995
991
990
994
995
995
989
987
983
984
987
987
985
983
983
986
991
990
990
989
987
989
989
989
984
977
974
974
982
985
984
979
978
982
981
984
978
977
975
980
981
980
979
980
979
980
980
982
978
975
974
975
979
981
983
979
979
983
986
988
984
984
988
993
996
1000
1004
1001
999
990
978
965
952
936
916
902
891
892
900
914
938
966
992
1010
1013
993
955
924
905
902
908
917
932
959
977
985
985
985
988
991
993
993
993
991
991
995
999
1001
1000
998
1000
1004
1008
1007
1005
1005
1006
1005
1008
1007
1007
1003
1003
1006
1008
1008
1010
1006
1007
1006
1007
1008
1009
1006
1006
1010
1012
1012
1010
1011
1010
1013
1015
1016
1014
1014
1015
1014
1020
1019
1019
1016
1015
1018
1023
1023
1022
1021
1022
1024
1028
1031
1031
1025
1029
1032
1036
1035
1034
1032
1034
1035
1039
1040
1041
1039
1036
1042
1046
1045
1042
1044
1044
1047
1049
1048
1044
1045
1045
1046
1049
1047
1044
1040
1037
1039
1039
1037
1036
1027
1023
1024
1026
1025
1019
1015
1012
1012
1013
1014
1012
1009
1006
1009
1010
1010
1007
1002
1001
1001
1006
1003
999
999
998
998
1000
999
1001
996
998
1001
1001
1002
999
996
997
1000
1000
1001
998
996
995
998
999
1000
996
994
996
995
999
1000
1001
997
996
1001
1000
1001
1000
999
998
998
1001
1000
1001
997
996
998
1001
998
999
996
995
995
994
996
994
990
990
993
992
991
989
986
983
988
991
993
991
989
987
989
989
991
990
990
984
987
991
990
987
985
983
985
988
989
984
982
982
983
986
986
983
983
977
981
984
988
986
983
982
982
988
986
983
983
983
983
987
988
986
981
981
984
987
987
985
979
978
979
983
984
981
981
981
981
987
987
987
982
981
983
987
985
984
981
982
983
986
981
981
979
980
979
982
983
982
979
978
981
984
984
982
983
983
983
987
988
988
983
984
988
992
995
995
992
995
997
997
996
998
996
998
998
1005
1004
1001
996
992
993
996
991
989
986
984
987
989
992
987
986
986
987
993
994
995
993
993
996
998
994
990
983
979
982
987
987
986
979
980
984
985
986
984
981
981
985
985
986
985
979
983
986
989
990
988
983
982
982
987
986
984
981
981
983
989
992
990
989
992
1000
1007
1014
1011
1000
981
968
962
952
940
922
908
910
925
946
967
992
1016
1029
1022
989
944
912
898
905
920
942
965
976
985
986
990
994
993
992
993
996
1000
1003
1002
1000
1002
1001
1007
1008
1006
1002
1000
1005
1009
1009
1007
1006
1007
1009
1010
1011
1009
1006
1008
1010
1012
1014
1014
1012
1012
1015
1017
1017
1017
1014
1011
1015
1018
1020
1017
1015
1017
1020
1022
1022
1019
1016
1018
1021
1024
1023
1024
1024
1026
1027
1033
1035
1031
1031
1031
1035
1034
1036
1034
1033
1034
1035
1040
1041
1039
1036
1036
1038
1044
1046
1046
1045
1048
1051
1057
1054
1057
1052
1053
1055
1059
1060
1057
1054
1051
1053
1056
1053
1050
1045
1043
1043
1043
1041
1036
1033
1034
1031
1034
1032
1027
1021
1022
1022
1022
1020
1018
1014
1013
1017
1018
1016
1012
1010
1008
1009
1012
1013
1010
1008
1007
1009
1012
1012
1010
1008
1005
1009
1014
1012
1008
1003
1005
1008
1011
1009
1007
1004
1003
1004
1005
1008
1004
1003
1003
1004
1007
1006
1008
1004
1005
1007
1010
1011
1009
1002
1006
1005
1009
1007
1008
1004
1003
1007
1008
1009
1008
1002
1003
1007
1009
1008
1004
1002
1003
1005
1008
1009
1008
1004
1005
1003
1008
1008
1004
1000
1003
1003
1007
1005
1004
997
1002
1002
1005
1002
1000
998
997
999
1001
1002
1001
998
997
998
999
1000
999
995
996
998
999
998
996
995
994
999
999
998
997
996
992
996
998
996
993
990
988
994
994
995
990
989
989
990
995
994
995
994
994
993
995
995
993
992
992
996
995
997
994
991
992
994
995
995
993
993
992
995
996
998
1001
1000
1000
1002
1008
1006
1004
1003
1002
1009
1012
1013
1008
999
1003
1003
1005
1001
1000
993
991
995
998
999
997
994
995
995
1000
1002
1004
1000
999
999
999
995
991
985
984
990
991
991
987
985
986
987
988
989
986
984
985
985
988
987
987
985
983
986
993
987
989
985
987
987
989
992
991
989
991
997
1000
1005
1008
1012
1006
995
987
973
962
946
927
915
909
919
937
961
991
1017
1029
1022
983
940
914
912
917
931
945
961
978
988
992
996
993
994
993
996
1001
1002
1001
1000
1001
1006
1008
1007
1005
1003
1004
1007
1010
1010
1006
1005
1006
1008
1011
1012
1011
1007
1008
1010
1016
1017
1014
1009
1008
1011
1013
1014
1014
1009
1010
1010
1017
1016
1014
1009
1010
1011
1015
1015
1014
1011
1012
1017
1018
1022
1018
1018
1021
1021
1021
1026
1021
1021
1020
1026
1029
1028
1027
1027
1027
1027
1031
1033
1032
1033
1031
1037
1042
1042
1044
1039
1040
1044
1045
1048
1044
1040
1044
1045
1048
1048
1043
1041
1041
1041
1043
1040
1037
1033
1030
1031
1032
1029
1025
1021
1019
1019
1020
1017
1013
1010
1007
1011
1009
1008
1006
1001
1004
1002
1004
1004
1001
999
1000
1003
1005
1002
1002
1001
1001
1004
1005
1006
1005
1000
1001
1004
1004
1006
1003
999
999
1003
1005
1003
1001
999
994
998
1003
1005
1001
1000
1002
1004
1007
1006
1005
1003
1002
1001
1005
1003
1003
997
1000
1002
1002
1004
1000
998
998
1001
1002
1003
996
995
992
990
996
997
996
995
995
996
999
999
996
993
993
996
996
997
994
992
991
993
995
995
992
987
988
989
993
994
991
988
989
992
994
994
994
990
989
991
992
994
992
988
987
990
993
990
988
986
987
987
990
988
985
982
980
986
990
990
989
987
986
990
990
993
991
987
987
989
991
993
989
988
987
987
989
992
990
988
986
990
989
989
987
987
988
989
995
995
992
990
990
993
996
997
994
998
999
1004
1007
1005
1004
1001
1004
1006
1010
1011
1009
1006
1003
1004
1004
1005
1003
998
995
995
998
1001
999
996
997
998
1000
997
997
997
993
999
1005
1004
999
996
990
990
990
992
993
989
989
992
997
997
995
993
992
994
997
996
993
992
991
993
995
995
993
992
989
990
994
995
992
990
994
997
1002
1002
1003
1005
1006
1013
1016
1001
975
958
939
918
907
912
938
980
1022
1033
1001
946
911
909
928
959
987
1001
1000
1001
1005
1006
1009
1010
1008
1009
1005
1015
1020
1021
1019
1015
1019
1018
1023
1021
1022
1018
1020
1022
1028
1024
1023
1020
1020
1024
1027
1028
1025
1026
1026
1028
1032
1033
1032
1028
1030
1032
1037
1035
1035
1034
1031
1036
1039
1038
1037
1036
1038
1042
1045
1045
1043
1044
1046
1048
1049
1052
1051
1050
1049
1055
1059
1061
1057
1056
1058
1061
1063
1063
1063
1065
1065
1067
1071
1072
1071
1070
1069
1072
1076
1074
1074
1070
1067
1069
1071
1070
1068
1064
1061
1063
1065
1063
1058
1046
1045
1045
1051
1046
1042
1039
1038
1037
1038
1037
1033
1028
1030
1028
1032
1030
1025
1024
1024
1027
1028
1029
1028
1022
1025
1027
1031
1027
1024
1024
1023
1026
1029
1029
1026
1023
1023
1024
1029
1028
1020
1021
1017
1019
1023
1024
1023
1020
1021
1023
1027
1026
1023
1023
1021
1025
1026
1028
1024
1024
1023
1024
1028
1029
1024
1025
1023
1023
1026
1024
1025
1022
1023
1024
1028
1029
1028
1024
1023
1026
1029
1029
1023
1021
1022
1025
1024
1024
1021
1019
1019
1020
1022
1021
1019
1019
1019
1019
1020
1018
1018
1016
1014
1016
1018
1019
1016
1017
1017
1018
1022
1021
1014
1017
1015
1018
1021
1017
1016
1015
1010
1011
1018
1016
1014
1013
1010
1012
1014
1012
1012
1009
1005
1012
1014
1012
1008
1010
1010
1011
1013
1015
1010
1008
1008
1012
1015
1012
1009
1007
1005
1008
1011
1013
1011
1007
1008
1008
1009
1007
1007
1005
1005
1007
1010
1009
1008
1007
1007
1010
1011
1014
1011
1009
1008
1007
1011
1013
1010
1006
1008
1008
1012
1011
1010
1008
1007
1009
1012
1014
1018
1018
1020
1024
1026
1023
1024
1019
1020
1023
1027
1028
1027
1026
1025
1023
1022
1022
1016
1012
1012
1011
1012
1012
1010
1013
1012
1016
1019
1016
1012
1013
1015
1019
1022
1020
1018
1016
1012
1011
1010
1007
1005
1002
1005
1010
1012
1011
1004
1003
1001
1004
1007
1009
1006
1002
1000
1006
1009
1009
1009
1006
1007
1008
1010
1009
1009
1005
1005
1010
1010
1010
1009
1006
1007
1005
1009
1012
1012
1013
1015
1023
1031
1028
1017
999
987
981
975
958
938
925
931
942
962
985
1011
1029
1039
1046
1029
993
954
928
922
924
938
954
971
988
1000
1004
1013
1015
1015
1014
1015
1016
1022
1023
1020
1020
1018
1024
1027
1031
1027
1026
1026
1027
1031
1029
1027
1027
1028
1029
1034
1031
1032
1029
1030
1034
1034
1035
1034
1033
1033
1036
1039
1038
1035
1035
1036
1037
1039
1037
1036
1036
1036
1036
1041
1038
1041
1036
1038
1040
1044
1042
1039
1038
1040
1043
1049
1048
1043
1044
1042
1045
1052
1051
1049
1047
1048
1051
1056
1055
1053
1052
1052
1053
1059
1058
1057
1058
1060
1062
1066
1070
1068
1063
1066
1069
1078
1076
1074
1070
1074
1075
1080
1077
1076
1074
1073
1076
1077
1073
1069
1069
1065
1064
1065
1061
1056
1053
1048
1051
1048
1046
1043
1039
1036
1038
1040
1039
1035
1029
1030
1032
1033
1031
1030
1024
1027
1028
1027
1029
1025
1023
1020
1026
1027
1027
1022
1021
1021
1022
1023
1024
1020
1019
1021
1021
1023
1025
1022
1018
1018
1020
1023
1021
1021
1016
1017
1022
1022
1022
1019
1015
1017
1018
1022
1020
1019
1016
1016
1022
1022
1021
1019
1016
1018
1020
1023
1022
1018
1017
1018
1018
1023
1023
1020
1018
1018
1019
1021
1019
1017
1015
1014
1016
1018
1019
1014
1013
1011
1013
1010
1013
1011
1008
1009
1011
1016
1014
1012
1008
1009
1011
1014
1010
1008
1007
1007
1008
1012
1012
1008
1007
1005
1009
1008
1007
1004
1001
1002
1001
1007
1008
1003
999
1003
1004
1007
1007
1005
1002
998
1002
1005
1004
1001
999
999
1003
1006
1004
1001
1001
999
1004
1008
1005
1003
1000
1000
1004
1006
1003
1003
1000
997
1001
1001
1004
1003
1001
1000
1001
1006
1003
1003
1001
1002
1003
1005
1005
1005
1003
1004
1006
1010
1011
1011
1007
1008
1011
1011
1012
1010
1009
1010
1015
1019
1014
1012
1009
1010
1014
1014
1010
1007
1001
1002
1005
1007
1005
1002
1005
1005
1003
1008
1008
1007
1007
1007
1011
1012
1010
1006
1000
997
997
996
995
996
995
997
997
999
999
996
994
994
998
997
996
997
991
992
996
997
999
994
992
989
994
996
995
994
993
990
995
998
998
998
995
994
1002
1005
1010
1010
1013
1018
1022
1020
1006
988
978
966
955
941
926
915
915
932
954
984
1013
1035
1039
1025
986
948
926
923
929
944
968
988
996
996
995
998
1005
1004
1005
1003
1001
1004
1007
1011
1009
1008
1005
1008
1013
1014
1013
1011
1011
1012
1015
1017
1017
1013
1009
1010
1014
1015
1018
1014
1011
1012
1014
1016
1017
1013
1012
1011
1010
1017
1018
1013
1013
1013
1019
1020
1022
1020
1020
1021
1021
1022
1027
1025
1022
1021
1027
1027
1026
1027
1025
1026
1027
1032
1033
1031
1029
1030
1036
1039
1036
1038
1036
1035
1040
1044
1046
1042
1042
1043
1047
1051
1048
1042
1045
1043
1049
1052
1052
1049
1048
1050
1053
1053
1053
1051
1049
1047
1044
1050
1046
1043
1038
1036
1037
1038
1034
1031
1027
1024
1022
1022
1024
1019
1014
1014
1014
1016
1015
1010
1012
1008
1014
1015
1016
1012
1008
1010
1013
1013
1016
1011
1008
1005
1010
1011
1013
1009
1005
1003
1009
1009
1010
1007
1005
1008
1011
1010
1012
1011
1008
1007
1012
1016
1013
1009
1004
1005
1010
1013
1014
1013
1008
1010
1013
1014
1011
1011
1006
1009
1011
1011
1010
1013
1010
1009
1011
1014
1015
1013
1009
1008
1010
1014
1010
1009
1008
1007
1010
1011
1008
1006
1003
1003
1008
1009
1008
1003
1000
999
1001
1006
1003
999
999
1001
1004
1006
1004
1002
998
999
999
1002
1003
1002
996
998
1002
1004
1003
998
997
996
1000
1000
1001
999
994
996
997
999
998
997
995
996
1001
1003
1002
1000
994
996
998
1000
997
997
994
995
997
1001
1000
998
996
997
998
1000
1000
996
995
996
1000
1004
1004
1002
1000
999
1004
1006
1005
1000
1001
1002
1003
1005
1004
1000
999
999
1002
1003
1002
1002
1000
1001
1001
1007
1010
1010
1011
1008
1013
1020
1020
1018
1013
1014
1019
1020
1021
1016
1014
1010
1015
1017
1011
1005
1002
1003
1005
1008
1010
1008
1005
1005
1009
1013
1014
1013
1011
1013
1011
1011
1007
1001
997
999
1001
1004
1002
998
996
995
998
1001
999
999
997
998
1001
1002
1001
996
996
998
999
1002
1002
1000
994
998
999
1002
1000
997
998
999
1001
1008
1013
1014
1018
1017
1007
990
974
960
942
924
915
925
942
966
998
1023
1039
1034
1000
955
920
913
921
935
950
969
985
993
997
1005
1005
1008
1004
1006
1009
1011
1012
1013
1009
1012
1018
1022
1020
1018
1015
1017
1020
1022
1022
1018
1015
1017
1021
1024
1025
1023
1020
1022
1024
1026
1028
1023
1024
1025
1030
1029
1031
1030
1027
1029
1029
1034
1030
1031
1026
1026
1033
1036
1033
1030
1030
1029
1033
1035
1032
1031
1033
1034
1035
1036
1039
1037
1038
1040
1042
1044
1043
1044
1044
1044
1048
1049
1050
1048
1046
1050
1051
1055
1054
1054
1051
1053
1059
1064
1064
1063
1058
1063
1068
1073
1071
1066
1066
1066
1069
1071
1067
1067
1063
1065
1064
1065
1063
1056
1053
1050
1051
1050
1045
1043
1038
1041
1040
1042
1039
1031
1032
1032
1032
1033
1029
1025
1026
1026
1027
1028
1023
1024
1022
1021
1024
1027
1022
1019
1016
1019
1023
1024
1021
1017
1013
1016
1021
1023
1020
1019
1013
1014
1018
1022
1020
1020
1016
1018
1020
1020
1018
1018
1014
1016
1018
1021
1020
1018
1013
1016
1020
1021
1022
1017
1016
1016
1020
1023
1020
1018
1015
1018
1018
1020
1023
1016
1015
1020
1020
1022
1021
1019
1015
1016
1018
1021
1018
1019
1014
1014
1020
1022
1017
1014
1012
1012
1014
1017
1015
1012
1011
1008
1014
1012
1013
1009
1007
1012
1011
1013
1012
1011
1009
1010
1010
1012
1013
1010
1008
1010
1012
1016
1013
1007
1005
1005
1009
1011
1011
1008
1004
1004
1009
1011
1008
1008
1007
1008
1010
1010
1010
1008
1006
1008
1008
1007
1008
1006
1005
1004
1007
1008
1007
1003
1001
1004
1004
1005
1002
999
1002
1002
1005
1007
1004
999
999
1002
1003
1005
1002
1005
1000
1003
1004
1007
1008
1002
1003
1006
1006
1010
1011
1005
1008
1011
1014
1014
1015
1013
1013
1016
1018
1018
1019
1010
1010
1007
1010
1011
1007
1004
1003
1003
1007
1009
1007
1004
1003
1003
1007
1011
1008
1003
999
997
998
1000
998
998
995
995
999
1000
997
997
995
996
998
999
995
995
992
994
994
998
994
995
993
992
998
997
996
995
993
991
996
999
999
1001
1000
1006
1011
1017
1018
1022
1018
1011
1001
990
976
963
946
928
918
919
928
946
972
1002
1027
1043
1030
990
946
919
916
925
942
960
976
991
997
1004
1003
1004
1003
1004
1005
1007
1011
1007
1009
1009
1013
1017
1020
1016
1013
1013
1015
1016
1017
1013
1012
1014
1018
1017
1018
1014
1013
1016
1017
1021
1021
1017
1018
1017
1020
1024
1024
1022
1018
1019
1024
1025
1024
1021
1019
1021
1025
1027
1025
1023
1022
1025
1027
1029
1030
1027
1025
1029
1032
1035
1035
1030
1028
1031
1034
1037
1039
1035
1033
1034
1039
1040
1041
1039
1038
1041
1044
1045
1045
1041
1043
1046
1050
1056
1053
1050
1051
1054
1054
1059
1055
1055
1053
1051
1053
1055
1048
1048
1046
1045
1045
1043
1041
1037
1034
1034
1031
1032
1027
1022
1020
1021
1021
1021
1021
1017
1015
1015
1017
1016
1016
1011
1009
1010
1016
1012
1013
1010
1008
1007
1008
1012
1005
1005
1006
1008
1010
1011
1010
1008
1007
1009
1012
1015
1013
1012
1009
1010
1014
1015
1012
1009
1007
1010
1011
1015
1014
1013
1012
1014
1015
1016
1015
1013
1013
1013
1013
1014
1014
1011
1012
1012
1016
1017
1014
1009
1010
1013
1013
1011
1012
1010
1005
1006
1008
1009
1009
1002
1000
1001
1005
1005
1004
998
998
1002
1008
1011
1007
1003
998
1003
1007
1007
1006
1004
999
1001
1004
1004
1003
1004
1001
1002
1003
1005
1004
1004
1002
1002
1005
1006
1006
1003
1000
1002
1006
1006
1003
1001
998
1003
1005
1005
1004
1003
1001
1002
1004
1007
1004
1005
999
1005
1009
1007
1007
1004
1002
1002
1003
1007
1007
1003
1000
1002
1004
1006
1004
1003
1001
1001
1004
1008
1008
1007
1006
1009
1014
1016
1014
1015
1014
1015
1020
1019
1022
1016
1017
1018
1022
1022
1019
1016
1014
1014
1013
1013
1008
1004
1002
1005
1010
1010
1011
1009
1007
1010
1013
1016
1018
1013
1010
1009
1009
1008
1006
1001
1000
1002
1005
1006
1003
1002
1000
1001
1004
1005
1004
1001
1001
1001
1001
1007
1004
1004
1004
1005
1007
1008
1007
1002
1000
1003
1007
1007
1008
1005
1007
1010
1014
1019
1022
1023
1019
1006
992
979
962
948
933
916
913
921
940
961
991
1017
1036
1031
999
957
929
921
930
945
962
982
995
1004
1009
1013
1012
1010
1008
1012
1016
1021
1020
1020
1021
1022
1026
1027
1025
1023
1020
1021
1025
1029
1028
1025
1023
1025
1027
1028
1028
1030
1028
1027
1032
1034
1031
1029
1031
1034
1036
1039
1034
1034
1031
1034
1036
1041
1040
1036
1035
1037
1040
1039
1039
1038
1037
1037
1040
1046
1048
1046
1046
1049
1052
1054
1055
1053
1047
1051
1056
1062
1060
1058
1056
1059
1064
1064
1066
1063
1063
1065
1068
1071
1072
1070
1070
1071
1076
1079
1079
1077
1075
1072
1077
1075
1072
1071
1065
1064
1066
1064
1060
1054
1053
1051
1048
1045
1044
1039
1033
1038
1040
1040
1036
1032
1031
1030
1030
1030
1029
1025
1024
1025
1029
1028
1025
1020
1019
1020
1023
1022
1025
1022
1018
1019
1023
1026
1028
1022
1022
1024
1025
1027
1026
1023
1019
1023
1022
1027
1027
1020
1017
1020
1023
1026
1025
1021
1015
1020
1022
1021
1023
1023
1021
1021
1026
1026
1023
1023
1024
1025
1030
1030
1027
1024
1021
1025
1028
1027
1025
1021
1020
1020
1022
1022
1021
1021
1017
1018
1022
1024
1021
1020
1019
1017
1025
1024
1019
1016
1017
1018
1019
1021
1015
1012
1010
1013
1017
1019
1017
1015
1012
1016
1015
1017
1016
1015
1013
1011
1016
1018
1016
1015
1013
1015
1017
1015
1013
1010
1010
1011
1011
1014
1015
1013
1012
1011
1014
1017
1015
1015
1014
1014
1016
1016
1014
1012
1010
1012
1017
1014
1013
1009
1009
1012
1013
1014
1013
1013
1012
1018
1021
1025
1025
1023
1022
1024
1024
1025
1025
1023
1025
1026
1026
1028
1025
1021
1017
1018
1018
1015
1012
1014
1013
1015
1018
1017
1016
1013
1015
1020
1020
1021
1018
1012
1007
1004
1007
1005
1007
1002
1002
1003
1008
1008
1006
1002
1003
1005
1009
1010
1005
1002
996
1002
1005
1005
1001
1001
997
1004
1007
1006
1006
1000
1002
1004
1007
1011
1010
1008
1013
1018
1028
1031
1031
1017
1002
992
983
971
952
931
921
932
953
980
1009
1033
1047
1050
1025
982
943
925
928
940
963
985
997
1001
1003
1008
1014
1014
1012
1010
1011
1012
1016
1019
1019
1017
1016
1018
1020
1020
1021
1012
1016
1018
1021
1022
1022
1016
1020
1022
1025
1026
1025
1021
1023
1024
1024
1027
1024
1021
1020
1023
1025
1028
1026
1023
1021
1022
1025
1027
1025
1021
1023
1022
1024
1027
1026
1026
1026
1029
1031
1034
1033
1030
1032
1032
1034
1035
1035
1033
1029
1034
1036
1036
1036
1032
1031
1035
1039
1042
1040
1038
1039
1040
1046
1048
1048
1046
1045
1047
1054
1053
1053
1051
1050
1051
1055
1059
1056
1055
1055
1059
1059
1060
1059
1055
1055
1055
1058
1057
1057
1052
1049
1051
1052
1051
1050
1047
1043
1040
1042
1041
1037
1033
1031
1031
1030
1031
1025
1022
1018
1023
1024
1025
1019
1017
1016
1016
1021
1021
1018
1015
1015
1014
1017
1017
1017
1013
1013
1011
1016
1018
1016
1013
1012
1015
1016
1015
1011
1011
1011
1011
1013
1013
1013
1008
1008
1009
1013
1015
1014
1012
1010
1012
1013
1016
1015
1013
1012
1012
1015
1021
1017
1014
1012
1015
1018
1021
1018
1014
1012
1015
1019
1021
1020
1016
1017
1014
1016
1018
1012
1014
1009
1014
1013
1014
1015
1013
1009
1008
1010
1011
1009
1008
1006
1008
1011
1012
1009
1006
1005
1005
1007
1011
1012
1011
1010
1007
1013
1013
1012
1008
1005
1010
1011
1012
1013
1009
1008
1010
1014
1013
1013
1009
1008
1008
1012
1011
1009
1008
1006
1009
1010
1011
1009
1002
1005
1006
1010
1013
1010
1007
1005
1007
1010
1012
1007
1008
1008
1010
1011
1013
1012
1008
1006
1011
1011
1013
1012
1007
1006
1009
1011
1011
1010
1006
1005
1007
1011
1010
1009
1006
1007
1009
1013
1012
1011
1007
1014
1016
1020
1022
1023
1020
1020
1019
1024
1026
1023
1022
1021
1025
1028
1028
1025
1022
1022
1022
1022
1020
1017
1011
1009
1012
1013
1016
1011
1012
1012
1013
1014
1017
1019
1017
1016
1015
1018
1019
1013
1007
1004
1005
1008
1010
1006
1005
1004
1005
1005
1007
1003
1001
998
1005
1005
1006
1004
997
1000
1005
1006
1003
1004
1000
1000
1004
1008
1008
1003
1000
1002
1002
1008
1010
1010
1011
1013
1017
1023
1029
1024
1021
1004
994
987
977
963
944
924
911
913
923
937
957
986
1015
1037
1040
1025
991
954
933
926
929
940
955
975
994
1003
1005
1008
1008
1010
1010
1015
1015
1014
1014
1017
1021
1022
1023
1025
1021
1022
1021
1027
1028
1027
1025
1023
1022
1025
1026
1025
1024
1021
1026
1028
1028
1027
1026
1027
1029
1032
1032
1032
1029
1030
1031
1034
1032
1033
1030
1029
1032
1034
1035
1035
1031
1030
1033
1037
1039
1036
1035
1032
1035
1041
1044
1043
1041
1041
1043
1047
1047
1048
1045
1044
1048
1052
1054
1053
1053
1053
1053
1054
1056
1057
1055
1055
1061
1065
1068
1066
1062
1065
1066
1072
1069
1068
1066
1065
1065
1070
1071
1066
1064
1062
1060
1062
1063
1056
1051
1050
1050
1051
1045
1043
1038
1038
1038
1038
1035
1031
1030
1029
1028
1032
1032
1027
1023
1023
1025
1026
1025
1024
1019
1022
1020
1019
1024
1023
1021
1019
1017
1020
1021
1019
1016
1013
1017
1020
1022
1020
1013
1019
1018
1021
1023
1022
1019
1019
1021
1022
1022
1020
1019
1020
1020
1021
1024
1021
1018
1019
1019
1024
1023
1024
1018
1020
1022
1023
1024
1020
1019
1020
1023
1025
1024
1023
1019
1017
1018
1021
1016
1017
1011
1013
1014
1016
1016
1015
1009
1010
1012
1015
1014
1013
1010
1011
1011
1014
1014
1015
1010
1009
1010
1013
1014
1013
1009
1007
1010
1014
1014
1010
1010
1010
1009
1011
1011
1010
1008
1007
1007
1010
1010
1009
1006
1007
1009
1013
1014
1010
1006
1008
1007
1012
1010
1006
1005
1007
1008
1009
1014
1010
1007
1005
1006
1010
1011
1007
1002
1003
1006
1010
1010
1008
1008
1008
1011
1015
1014
1012
1007
1008
1007
1009
1010
1010
1006
1006
1006
1008
1009
1008
1007
1004
1008
1011
1012
1013
1011
1012
1016
1019
1020
1021
1020
1020
1023
1027
1023
1026
1025
1026
1025
1026
1025
1022
1017
1012
1015
1016
1015
1011
1008
1009
1011
1015
1014
1012
1011
1011
1016
1020
1021
1016
1014
1010
1009
1011
1006
1006
1004
1006
1007
1008
1009
1008
1004
1001
1004
1006
1005
1003
1000
1001
1003
1006
1004
1002
1000
1003
1007
1009
1009
1008
1004
1007
1007
1012
1015
1013
1013
1017
1023
1031
1029
1019
998
985
974
964
950
929
912
912
925
948
977
1006
1028
1038
1028
993
952
926
923
931
948
970
988
1002
1005
1008
1011
1014
1016
1014
1012
1017
1021
1026
1025
1023
1020
1023
1026
1030
1031
1028
1026
1027
1029
1031
1033
1032
1027
1026
1027
1031
1034
1030
1027
1029
1031
1033
1037
1034
1033
1033
1036
1041
1041
1038
1035
1036
1038
1041
1042
1038
1035
1036
1040
1040
1042
1041
1038
1039
1043
1045
1047
1048
1046
1046
1048
1052
1055
1054
1049
1052
1057
1058
1057
1057
1057
1057
1061
1064
1064
1063
1062
1062
1067
1071
1071
1072
1070
1073
1075
1080
1080
1080
1076
1076
1076
1080
1081
1078
1077
1073
1073
1073
1074
1067
1063
1061
1060
1059
1056
1051
1043
1045
1045
1047
1043
1039
1032
1031
1034
1037
1034
1032
1028
1029
1026
1031
1030
1030
1023
1025
1025
1028
1029
1025
1024
1025
1027
1029
1029
1027
1025
1024
1026
1027
1024
1023
1021
1019
1023
1024
1024
1022
1019
1019
1020
1024
1026
1021
1019
1021
1023
1027
1027
1026
1022
1021
1024
1027
1027
1026
1022
1024
1027
1029
1027
1026
1023
1022
1026
1028
1026
1024
1021
1019
1023
1027
1027
1023
1020
1020
1023
1023
1024
1021
1021
1016
1019
1021
1021
1020
1015
1014
1020
1019
1018
1016
1013
1011
1012
1016
1016
1015
1013
1012
1014
1017
1020
1016
1013
1014
1016
1017
1016
1011
1010
1008
1012
1014
1012
1011
1008
1008
1010
1011
1010
1011
1007
1008
1009
1012
1014
1008
1007
1008
1009
1012
1010
1007
1005
1003
1008
1010
1008
1006
1000
1005
1008
1011
1012
1008
1006
1009
1008
1012
1013
1009
1008
1008
1012
1013
1012
1009
1008
1008
1011
1015
1016
1015
1013
1017
1017
1018
1021
1022
1017
1019
1023
1025
1028
1025
1023
1022
1022
1025
1020
1018
1014
1012
1013
1014
1014
1012
1008
1010
1009
1014
1014
1012
1011
1012
1017
1020
1022
1017
1010
1003
1007
1006
1009
1007
1005
1003
