949
949
949
949
949
949
949
949
947
947
947
948
952
952
950
951
950
952
953
955
956
955
955
958
959
962
963
962
962
964
968
974
974
975
977
980
985
991
992
992
997
1000
1006
1012
1015
1017
1021
1024
1030
1036
1038
1039
1039
1044
1046
1051
1050
1053
1051
1056
1057
1059
1061
1059
1057
1058
1056
1054
1052
1048
1041
1040
1038
1035
1028
1023
1014
1011
1007
1005
999
995
991
989
987
983
981
980
978
975
976
975
975
971
971
971
972
973
970
971
969
971
969
971
970
971
968
967
969
972
974
971
970
971
976
975
974
974
973
976
978
979
978
976
976
976
980
980
980
979
976
977
981
980
978
978
977
977
980
981
978
976
974
975
976
976
977
974
973
973
974
975
973
970
970
971
972
973
970
968
966
967
967
966
966
966
964
965
964
964
963
964
960
961
961
964
962
962
959
959
960
960
962
959
959
960
961
965
969
968
968
971
973
975
976
977
975
976
977
981
981
981
978
980
982
983
981
981
975
973
974
972
970
970
970
973
974
973
972
965
961
960
959
958
956
953
948
947
948
948
945
942
943
942
943
944
946
943
940
942
944
944
945
943
942
943
944
943
943
940
935
929
916
908
906
914
927
946
982
1042
1118
1194
1262
1326
1374
1394
1384
1341
1252
1148
1050
977
936
920
919
927
943
958
965
960
952
949
949
948
948
945
940
938
937
938
937
934
931
932
934
935
932
931
927
930
933
931
932
930
929
931
929
929
930
931
927
930
932
933
936
932
930
934
938
937
937
937
936
939
942
945
946
944
944
946
950
955
956
956
955
960
966
969
972
973
976
982
987
992
997
998
999
1004
1010
1016
1016
1019
1023
1027
1031
1036
1035
1036
1038
1041
1045
1047
1046
1046
1043
1044
1043
1042
1041
1035
1033
1030
1027
1022
1018
1011
1006
1001
998
994
988
981
976
974
972
970
969
963
961
959
961
962
962
954
955
954
958
959
958
955
954
955
954
956
955
954
953
954
958
958
958
958
957
959
960
961
961
960
958
961
962
964
964
962
960
962
963
965
965
965
961
962
965
965
964
962
963
962
963
965
964
961
959
958
961
962
961
959
957
958
959
960
957
958
956
954
955
956
956
954
953
954
955
955
955
954
949
951
952
950
951
951
948
947
949
950
949
947
944
948
947
949
950
946
944
945
949
948
947
947
945
944
945
947
948
947
947
949
952
953
957
957
961
962
962
962
961
963
962
967
970
971
972
970
969
971
974
974
971
969
965
961
962
961
961
962
960
962
964
960
956
953
949
948
948
946
943
943
940
938
939
938
937
934
934
934
934
937
936
936
932
933
934
934
936
934
933
934
937
937
935
932
922
910
900
897
906
917
933
969
1033
1113
1199
1270
1331
1374
1392
1370
1297
1182
1063
972
927
914
916
923
940
953
956
949
945
941
941
941
943
938
933
929
925
925
927
927
927
922
921
920
924
925
924
926
922
924
925
927
925
925
922
924
926
928
926
929
925
930
930
930
932
931
933
935
937
942
943
942
942
944
948
953
956
958
958
965
969
971
975
978
981
986
991
998
1004
1004
1007
1011
1014
1020
1022
1023
1023
1029
1030
1038
1038
1036
1035
1038
1039
1039
1036
1033
1027
1027
1026
1023
1021
1009
1005
1001
999
996
991
983
978
974
972
970
968
963
960
959
960
957
958
953
952
953
955
955
954
954
953
955
956
955
955
954
953
954
956
958
957
957
955
956
957
959
958
956
956
959
958
960
961
959
957
957
959
962
962
960
957
960
960
961
962
957
959
957
961
958
960
957
957
958
959
961
961
960
955
957
958
957
957
955
954
954
953
954
953
951
949
951
950
952
951
947
947
948
950
949
949
947
945
946
947
945
945
943
942
942
943
944
944
942
942
942
943
943
943
944
944
944
947
947
948
943
943
945
945
947
951
950
954
957
958
960
961
958
957
960
962
966
966
963
961
964
968
966
966
964
960
959
955
955
956
954
955
956
960
959
956
951
947
946
948
947
945
941
938
938
935
935
933
933
933
935
937
937
934
931
930
932
934
935
936
935
933
933
934
935
934
933
929
921
910
904
907
917
930
952
990
1058
1131
1204
1267
1325
1361
1364
1325
1236
1122
1019
951
919
909
910
928
948
957
955
945
942
938
941
940
939
936
930
929
928
929
929
928
927
925
927
927
926
928
926
927
928
930
929
927
926
926
926
929
928
930
928
926
927
933
934
934
933
929
935
937
939
939
937
938
942
944
948
949
951
953
957
961
965
966
970
972
976
981
983
988
990
992
998
1003
1006
1010
1012
1013
1015
1019
1025
1026
1026
1027
1031
1032
1035
1036
1031
1030
1033
1031
1032
1030
1025
1022
1018
1016
1013
1005
1003
997
993
990
989
984
979
972
971
970
971
967
964
962
961
963
964
961
957
955
959
958
959
958
955
957
957
958
957
957
954
956
957
958
957
959
958
960
960
961
960
961
962
963
964
965
963
962
965
965
964
966
967
967
965
966
967
968
968
967
965
967
967
966
968
967
966
965
969
967
965
965
964
964
965
965
963
960
960
960
962
962
960
959
956
958
958
957
955
954
953
953
955
955
954
953
949
951
952
953
952
951
949
950
952
952
950
949
948
948
950
951
951
949
948
948
950
953
953
949
948
950
950
953
953
956
955
958
964
965
966
964
964
966
967
970
973
972
970
969
974
977
977
974
971
968
968
966
962
961
961
964
967
968
963
961
956
954
955
953
948
945
944
947
945
944
943
940
937
941
940
939
939
938
938
938
938
941
939
937
937
939
940
939
940
937
931
923
913
907
913
925
942
978
1039
1121
1204
1278
1337
1378
1388
1355
1273
1156
1041
957
916
912
921
939
954
959
958
951
946
944
945
942
940
937
936
934
933
932
933
934
932
928
928
931
931
932
931
931
930
931
930
930
930
930
928
930
934
934
933
933
933
932
935
938
937
939
938
939
943
944
947
947
949
949
951
956
957
959
961
966
971
975
980
981
982
987
993
998
1002
1006
1006
1012
1019
1022
1023
1027
1026
1033
1039
1040
1044
1041
1043
1046
1049
1048
1051
1048
1043
1043
1045
1044
1041
1035
1027
1026
1023
1020
1013
1009
1001
999
996
993
988
982
977
977
974
974
970
968
966
961
964
963
963
961
958
958
960
959
961
957
955
958
960
961
959
958
956
960
961
963
962
961
960
964
965
966
964
962
962
964
966
966
967
966
965
967
970
969
969
968
966
966
968
968
970
968
965
966
970
967
967
966
964
967
966
965
963
963
961
964
964
964
962
961
957
960
962
961
959
959
956
957
957
958
956
955
954
955
957
957
955
949
950
952
955
954
953
951
948
950
951
952
950
950
949
950
950
951
950
948
948
949
951
952
951
953
953
953
957
962
962
964
965
965
968
969
970
970
971
972
973
973
975
976
973
975
974
972
969
966
962
960
963
966
967
966
963
962
959
957
957
952
948
947
948
946
943
940
938
939
940
938
939
936
937
939
938
939
939
938
936
935
940
941
939
939
935
934
928
918
908
906
911
928
952
994
1060
1142
1221
1298
1357
1388
1389
1355
1267
1152
1042
968
928
918
923
939
955
965
961
950
944
946
947
947
942
938
935
935
937
937
933
931
930
931
933
933
933
931
928
929
931
931
931
932
929
930
931
934
934
932
930
933
935
936
937
937
936
935
938
942
942
942
943
944
948
951
952
953
955
958
963
964
967
970
972
978
980
984
987
992
994
1000
1005
1009
1014
1017
1017
1023
1029
1031
1034
1033
1036
1038
1042
1045
1047
1048
1046
1048
1048
1050
1050
1045
1041
1042
1040
1036
1031
1023
1019
1019
1015
1011
1003
995
991
988
985
980
976
974
970
968
968
969
967
963
960
960
962
961
962
959
954
954
958
959
959
956
955
958
958
958
960
956
956
959
963
961
963
962
961
963
964
965
964
964
962
964
966
969
967
965
964
965
970
969
969
965
965
966
969
967
970
966
966
967
969
970
967
966
963
965
965
966
966
963
962
962
964
961
962
960
958
960
958
962
959
957
955
957
956
958
956
954
953
953
957
957
955
954
951
951
951
955
952
952
951
950
951
954
954
950
950
952
955
954
952
950
949
952
952
954
955
953
954
958
961
966
966
965
965
966
970
972
973
971
970
973
975
975
974
975
974
976
976
974
970
969
965
962
964
968
968
968
968
966
964
962
959
954
954
951
951
950
948
948
944
943
941
941
940
939
935
936
940
939
939
938
938
940
942
941
937
941
940
941
941
942
942
940
934
930
918
908
905
912
921
938
967
1013
1078
1144
1211
1277
1339
1381
1399
1384
1335
1242
1134
1040
970
936
922
922
927
942
955
962
959
955
953
949
949
945
942
945
944
940
937
935
933
932
935
932
934
931
930
932
936
934
932
932
927
931
931
933
932
930
930
933
932
933
935
934
931
935
937
940
938
938
935
937
941
942
942
941
943
942
946
948
951
951
952
952
959
961
965
966
966
969
974
979
983
983
987
990
996
999
1000
1004
1005
1009
1016
1020
1023
1023
1023
1028
1033
1038
1040
1039
1041
1045
1048
1050
1049
1047
1047
1049
1049
1051
1047
1043
1040
1038
1037
1033
1027
1024
1015
1016
1010
1008
1004
996
992
987
987
985
982
979
973
975
972
971
969
967
963
966
965
967
963
959
959
958
962
961
962
959
959
959
960
959
959
960
960
962
964
965
961
964
962
962
964
966
966
966
963
967
968
969
969
969
968
967
970
970
970
969
968
970
970
970
970
970
968
969
971
971
970
968
967
968
967
967
968
966
964
965
968
968
969
964
962
964
965
964
964
962
960
960
962
963
960
961
956
958
960
959
958
958
956
957
956
958
956
956
951
954
953
955
953
951
952
951
952
953
953
952
949
951
950
952
953
950
949
952
952
954
954
950
949
951
952
952
952
952
951
954
959
961
963
964
963
965
967
969
967
969
969
973
976
975
976
974
975
977
977
975
973
967
962
961
962
966
966
966
963
962
960
958
954
953
950
951
950
947
945
943
942
942
944
944
942
938
936
939
938
939
941
939
940
941
944
943
942
941
941
943
944
942
940
929
918
912
912
923
936
961
1003
1068
1138
1206
1275
1331
1364
1378
1358
1291
1193
1094
1014
958
929
919
920
933
951
961
965
955
949
946
945
949
948
944
939
938
935
937
938
938
939
935
935
933
935
938
938
934
932
935
935
937
936
935
933
934
937
939
937
935
934
936
939
940
939
939
938
941
943
944
945
944
944
948
950
950
951
952
951
956
959
962
963
964
967
971
975
979
981
980
985
991
995
1000
1002
1002
1006
1011
1016
1020
1022
1025
1027
1032
1033
1038
1038
1037
1039
1039
1044
1047
1048
1045
1042
1044
1045
1043
1039
1036
1029
1026
1027
1023
1015
1008
1004
1001
1002
997
991
986
985
984
982
980
979
973
972
971
971
970
969
968
967
966
967
967
966
964
962
963
965
966
966
965
964
964
967
967
966
964
966
965
968
968
968
969
967
969
971
971
972
972
970
972
973
975
975
975
975
974
977
975
977
972
972
972
978
976
978
975
976
975
974
976
976
973
972
973
976
975
973
973
969
972
972
972
971
971
968
969
972
969
969
967
965
964
966
965
965
965
960
961
964
963
959
959
958
960
960
961
960
958
955
957
958
959
957
956
956
958
958
960
958
958
956
957
958
959
958
957
955
958
959
962
964
968
971
970
970
974
976
974
974
975
983
982
980
978
979
982
981
982
977
975
970
973
970
973
974
972
972
972
972
969
964
961
959
958
956
958
955
951
948
949
949
947
947
946
946
945
947
946
946
945
944
945
947
948
947
944
944
945
947
944
935
920
910
916
929
948
975
1023
1098
1182
1262
1327
1371
1389
1372
1308
1206
1093
1000
945
922
926
940
959
968
970
960
954
954
954
957
951
945
944
944
945
942
941
940
938
940
941
941
939
939
939
940
943
942
940
939
939
942
943
942
942
940
942
942
947
946
944
941
945
947
949
950
950
951
952
955
958
960
961
960
966
969
972
973
975
973
980
985
992
993
995
995
1002
1009
1012
1016
1018
1022
1026
1032
1035
1035
1037
1039
1042
1044
1046
1050
1050
1050
1051
1055
1054
1054
1051
1048
1047
1048
1046
1041
1035
1030
1029
1024
1020
1014
1008
1001
998
995
995
989
983
978
977
977
975
973
970
967
968
968
967
966
963
963
964
966
965
964
964
961
962
966
964
962
962
961
962
966
967
966
965
965
966
969
972
968
970
969
971
971
973
972
969
969
970
973
974
973
971
971
971
972
974
972
971
971
971
973
974
973
971
969
972
971
972
971
966
962
966
968
968
966
963
961
964
965
964
964
962
961
961
961
962
960
958
958
957
959
959
958
956
953
956
957
956
957
954
955
956
954
955
956
955
951
953
955
957
957
954
954
955
960
963
964
968
966
970
972
973
973
974
972
974
977
980
976
978
979
979
980
979
975
973
969
969
970
970
972
971
970
966
965
963
958
956
952
953
952
951
949
947
943
944
945
947
943
942
941
942
943
943
943
942
943
944
946
950
945
943
943
941
942
940
933
919
904
908
919
934
954
989
1047
1126
1205
1275
1336
1381
1395
1375
1304
1199
1084
993
946
928
927
933
943
958
968
965
960
956
954
949
949
950
947
946
943
939
935
938
936
936
935
936
934
936
938
937
937
936
933
936
938
939
937
938
937
938
941
942
943
942
938
940
942
946
945
947
947
949
949
953
952
953
952
955
958
961
962
963
966
969
974
977
980
981
984
990
996
998
1002
1005
1009
1012
1018
1022
1024
1027
1029
1034
1036
1043
1044
1045
1047
1051
1054
1054
1057
1057
1056
1057
1058
1056
1057
1054
1048
1049
1046
1044
1038
1032
1027
1024
1020
1016
1010
1004
998
995
993
992
988
983
978
980
978
975
973
972
971
972
971
970
969
968
968
969
970
970
967
969
968
969
969
970
969
967
968
971
975
975
975
975
973
973
974
978
976
978
974
978
978
981
980
979
974
978
982
983
980
980
978
979
985
985
983
980
977
979
980
978
977
976
975
975
977
977
976
971
973
971
973
974
970
967
969
967
971
969
965
964
962
967
967
967
966
964
961
963
963
966
963
963
960
960
961
964
962
961
959
961
963
963
964
963
963
964
968
969
974
976
974
974
978
978
978
980
981
983
985
984
984
984
985
986
986
983
981
975
972
973
976
976
977
977
973
972
970
970
966
962
962
960
960
960
958
955
954
950
955
954
953
953
951
950
954
953
951
951
948
952
955
953
950
953
950
951
951
946
932
919
913
921
935
953
981
1034
1104
1186
1258
1322
1370
1392
1386
1334
1238
1126
1028
965
937
932
934
943
961
977
975
970
965
965
964
961
958
957
957
955
950
951
949
948
949
949
949
947
943
946
947
949
947
947
944
948
948
949
948
948
948
951
951
955
952
952
951
950
955
956
954
956
953
957
959
963
962
961
962
966
970
972
972
971
974
980
982
986
988
989
989
995
999
1003
1009
1013
1014
1016
1022
1028
1030
1031
1033
1036
1041
1044
1047
1047
1048
1053
1054
1055
1057
1059
1057
1061
1060
1060
1060
1057
1054
1051
1050
1045
1040
1036
1028
1027
1023
1018
1014
1012
1004
1003
998
997
994
990
987
986
986
986
984
981
980
981
979
982
981
979
977
979
979
979
975
977
977
978
981
982
981
979
980
982
984
984
984
983
979
985
984
986
985
983
984
982
985
985
987
985
986
985
988
990
988
986
985
984
986
987
986
984
981
981
984
987
983
982
980
979
982
984
983
978
978
978
976
976
976
972
970
972
974
974
974
971
969
970
971
972
969
965
965
966
966
968
967
965
964
966
967
965
966
963
962
964
965
966
965
965
964
965
966
969
968
970
972
976
980
979
979
980
981
983
986
987
989
988
985
987
988
990
992
987
984
982
980
978
978
977
979
981
984
983
979
975
970
969
967
968
964
961
958
958
959
956
953
952
951
952
954
955
953
952
951
952
954
953
955
949
950
952
954
954
954
949
942
934
924
921
930
943
962
1001
1059
1131
1203
1267
1322
1365
1383
1375
1329
1245
1142
1048
981
942
924
923
934
956
974
977
970
965
959
960
960
960
956
955
949
949
949
950
949
946
944
943
944
946
946
942
942
945
945
946
946
944
940
943
946
946
946
945
943
948
948
951
948
947
945
948
952
952
952
952
953
954
956
958
958
957
958
961
965
968
968
967
969
973
978
980
984
986
987
991
997
1001
1005
1005
1006
1011
1015
1018
1021
1025
1027
1031
1035
1038
1042
1042
1043
1046
1048
1049
1050
1049
1049
1050
1051
1052
1048
1044
1041
1038
1037
1033
1027
1023
1015
1012
1008
1002
1000
993
989
988
985
984
981
977
973
975
976
973
973
968
969
968
971
971
971
967
967
966
969
967
966
965
964
966
970
970
971
970
968
973
974
977
974
973
973
976
980
980
978
977
976
977
979
979
979
977
977
977
980
977
979
977
975
976
977
979
976
975
971
974
973
974
973
971
969
970
970
971
969
967
966
965
967
967
966
963
964
962
963
961
963
960
957
960
962
962
961
957
955
957
960
962
958
957
954
956
959
960
956
958
954
957
960
962
962
963
965
969
974
972
973
971
969
971
978
980
979
977
975
980
981
981
981
976
974
972
969
969
966
965
968
971
972
968
965
962
957
958
960
958
954
950
948
949
947
947
944
943
940
943
946
947
944
941
942
943
946
944
944
944
943
945
946
945
943
936
924
913
905
908
918
930
950
992
1057
1127
1197
1259
1317
1365
1386
1380
1336
1254
1141
1041
969
935
922
924
937
955
969
968
960
954
952
951
950
952
946
941
938
939
940
937
938
934
934
935
935
936
934
932
930
931
934
935
935
936
933
935
938
935
936
935
934
937
938
939
939
935
935
940
942
944
942
943
943
945
948
950
950
951
952
957
959
959
962
964
964
968
972
976
977
978
983
988
993
997
996
997
1003
1008
1012
1018
1019
1023
1022
1028
1031
1034
1035
1037
1037
1041
1043
1046
1045
1043
1043
1045
1044
1041
1039
1034
1029
1028
1024
1021
1014
1011
1006
1002
999
994
989
984
979
977
976
973
970
967
964
966
964
964
962
962
959
962
963
962
959
960
958
958
960
962
961
959
959
962
963
965
964
962
961
964
965
967
966
965
965
965
966
968
966
964
966
968
970
968
969
969
968
967
970
970
969
966
964
965
966
966
965
962
964
966
969
970
968
965
963
963
964
962
962
958
960
961
961
960
957
957
956
956
958
957
956
954
952
952
955
955
950
952
951
952
955
953
951
949
947
950
950
951
949
949
948
948
948
949
950
948
948
951
954
954
956
957
957
961
963
962
965
965
963
966
970
974
970
969
968
972
975
973
970
967
963
961
962
962
960
962
962
963
961
960
955
952
949
949
950
947
944
942
939
942
943
940
938
936
935
939
939
939
938
936
936
936
939
938
941
938
937
937
938
938
938
936
934
930
922
911
908
911
922
940
966
1014
1080
1147
1210
1267
1314
1340
1348
1328
1274
1190
1101
1024
964
930
915
914
923
940
954
957
952
947
945
943
943
941
942
941
939
936
934
933
930
933
932
932
931
930
930
929
930
932
928
927
926
927
930
930
930
930
930
929
933
931
932
930
930
931
933
935
934
933
933
936
938
938
939
938
937
941
943
948
947
947
949
951
956
957
955
959
963
966
970
973
974
977
981
987
989
993
995
997
1001
1004
1010
1012
1014
1016
1018
1021
1025
1028
1030
1029
1030
1033
1035
1033
1033
1033
1029
1031
1031
1030
1026
1020
1017
1014
1014
1009
1004
999
991
993
990
986
980
977
975
977
974
972
970
967
965
965
966
965
966
962
962
962
961
963
963
959
957
958
959
962
961
961
958
960
963
962
964
962
961
965
966
967
965
965
964
965
968
968
967
967
966
969
968
970
972
971
969
970
973
975
972
969
970
970
972
971
969
969
968
969
972
972
971
967
965
965
969
968
966
962
960
960
965
965
963
961
961
960
960
962
958
955
956
955
957
957
955
950
953
952
953
954
953
950
950
950
953
952
950
949
948
950
951
951
950
947
944
948
949
950
949
947
944
946
948
946
947
945
944
949
950
955
954
957
959
961
962
962
962
962
961
966
968
968
967
967
966
970
972
972
970
966
966
964
965
961
958
958
957
962
963
961
957
952
953
951
948
948
945
941
939
941
940
938
935
935
933
934
936
935
932
932
929
931
933
935
931
931
932
933
935
935
933
932
932
933
933
931
926
914
899
895
898
905
917
928
952
995
1061
1130
1199
1262
1318
1362
1378
1365
1312
1222
1113
1019
958
926
917
915
920
935
953
960
956
947
944
941
943
941
940
936
935
931
932
928
929
926
926
927
927
924
926
924
923
923
925
925
925
923
921
925
926
924
925
924
924
926
927
927
927
926
926
929
931
930
930
930
929
931
934
935
935
935
936
937
941
943
944
942
944
947
951
955
955
956
959
964
967
971
972
972
976
982
985
989
992
996
995
1000
1004
1009
1011
1013
1016
1020
1022
1026
1027
1029
1029
1031
1033
1032
1035
1032
1033
1033
1034
1031
1029
1025
1017
1019
1014
1012
1008
1000
995
990
990
985
980
977
971
969
970
966
966
962
957
959
957
956
955
953
953
953
953
950
953
951
951
951
955
952
954
952
951
953
956
954
955
953
952
952
956
957
959
956
955
957
959
957
959
957
959
960
962
959
961
959
957
961
960
963
963
959
958
961
960
961
959
957
956
958
959
956
956
954
952
955
955
957
954
951
952
949
952
953
948
946
948
947
947
947
943
941
944
943
944
943
943
941
940
940
942
943
939
939
938
941
940
942
943
941
938
941
940
942
941
940
940
940
943
940
939
938
937
940
942
944
942
941
942
945
950
953
953
953
953
953
958
958
959
960
959
964
964
964
966
966
963
965
962
963
959
957
952
952
952
953
955
956
953
952
951
948
945
942
939
939
940
937
936
932
931
929
932
931
928
928
929
928
929
929
928
929
927
927
929
929
929
926
925
929
931
928
928
926
926
926
924
913
899
891
893
906
922
940
980
1039
1114
1189
1257
1317
1356
1374
1365
1317
1227
1114
1013
946
917
911
911
915
928
942
948
946
940
937
934
933
929
930
931
930
924
923
921
921
921
922
920
917
918
917
920
921
919
916
917
918
921
920
917
916
917
921
921
920
920
918
920
920
925
924
925
924
921
924
929
930
933
932
929
933
936
938
938
940
941
945
951
953
952
955
959
964
970
972
974
977
980
986
989
993
996
997
999
1004
1009
1009
1011
1015
1015
1021
1024
1025
1025
1026
1028
1029
1030
1028
1027
1025
1022
1021
1019
1016
1010
1004
1000
997
992
988
982
977
971
970
969
965
960
956
955
956
956
953
951
950
947
948
948
949
948
947
946
945
949
950
948
945
944
948
949
951
949
949
948
951
951
954
954
953
952
954
957
957
955
955
955
957
958
960
958
958
957
957
960
960
958
957
954
956
957
958
957
953
954
955
952
953
951
951
949
949
952
949
947
947
942
943
946
945
943
943
944
945
943
946
943
940
940
944
942
942
941
937
938
940
940
939
939
936
937
938
938
940
939
937
935
937
940
939
938
937
933
938
939
940
939
938
936
937
941
937
938
937
936
939
942
939
938
939
939
939
944
945
950
949
948
952
956
957
957
958
958
958
962
965
964
962
962
964
963
964
961
957
953
954
953
953
956
956
956
956
956
952
949
945
943
945
944
943
940
939
935
934
937
936
934
934
932
934
935
934
935
933
932
932
935
935
935
931
933
933
935
935
936
931
931
935
938
939
938
935
936
937
935
927
912
904
907
921
941
965
1016
1087
1169
1249
1319
1371
1390
1372
1305
1189
1076
981
933
919
917
926
946
961
963
955
948
948
948
950
947
943
938
933
939
936
935
936
933
934
938
938
935
934
933
936
937
939
938
936
936
937
940
942
941
938
938
942
944
947
944
945
944
947
950
952
952
952
951
957
960
963
963
963
965
968
974
978
979
982
983
989
993
999
1001
1003
1005
1012
1018
1023
1022
1027
1028
1032
1038
1040
1041
1043
1043
1045
1051
1052
1052
1051
1049
1050
1050
1051
1047
1042
1039
1039
1036
1033
1030
1023
1016
1012
1011
1006
1001
998
992
992
990
988
987
982
980
980
980
979
976
975
974
975
978
977
977
974
974
978
979
981
979
977
977
977
980
981
980
980
979
984
983
984
985
982
982
985
987
989
987
987
987
986
988
989
990
988
987
989
986
991
989
986
987
988
990
991
988
987
985
987
987
987
985
983
981
983
984
984
982
981
978
980
980
980
978
977
975
978
977
977
978
976
973
974
975
976
971
970
971
974
973
973
972
970
969
970
971
973
969
968
967
970
971
971
969
969
968
970
968
971
970
968
968
969
970
972
970
969
970
973
977
981
982
983
984
987
988
989
988
989
990
992
995
995
994
993
993
995
993
990
988
981
981
984
987
988
986
984
982
980
978
976
973
971
969
967
966
966
964
962
961
961
963
963
963
959
960
963
964
962
959
960
958
960
958
960
959
961
960
961
964
961
964
963
961
965
964
966
964
961
959
951
940
931
932
941
957
982
1033
1107
1191
1265
1330
1382
1402
1395
1336
1229
1105
1010
959
944
941
952
969
985
988
981
976
974
973
972
972
968
965
962
962
961
960
963
962
959
957
959
961
960
958
956
957
959
958
958
957
958
959
959
962
961
962
961
960
963
965
966
966
963
965
966
969
972
971
971
972
974
978
980
981
983
984
987
993
995
996
999
1002
1007
1011
1015
1017
1017
1021
1028
1033
1035
1034
1036
1037
1042
1044
1049
1050
1050
1050
1055
1057
1057
1057
1056
1054
1055
1057
1055
1047
1044
1041
1039
1038
1034
1028
1022
1017
1014
1012
1006
1002
996
992
991
992
990
987
984
980
980
980
979
980
974
974
975
978
979
976
973
972
973
975
976
974
974
972
975
976
975
975
973
973
977
981
980
981
976
976
981
981
980
977
978
978
980
981
982
980
979
978
980
981
983
979
979
982
979
981
981
979
976
976
979
979
979
978
976
975
973
975
975
975
972
973
973
974
972
970
969
966
968
966
967
967
961
960
962
965
965
963
959
958
959
958
962
960
958
956
959
960
959
957
954
954
953
957
955
955
953
951
955
956
957
954
953
951
951
955
955
952
950
948
949
953
953
950
950
950
953
957
958
958
959
962
965
969
969
968
966
968
970
971
971
972
971
970
970
969
966
963
958
956
958
961
964
964
962
956
955
955
953
952
948
945
945
948
945
943
940
937
937
941
939
937
937
935
938
938
939
939
936
932
936
935
936
935
933
931
932
936
935
936
936
935
937
938
938
937
933
931
925
916
906
903
911
922
941
971
1022
1091
1157
1219
1281
1329
1353
1355
1322
1245
1140
1039
973
935
915
906
909
928
946
953
949
943
943
944
946
942
936
932
931
931
929
932
928
927
927
929
930
928
924
925
927
929
929
928
926
926
925
929
929
929
927
928
928
929
930
930
930
928
930
933
933
931
932
934
935
938
938
939
938
936
943
947
946
948
947
948
952
957
956
958
962
963
969
972
975
979
981
980
986
991
993
996
996
997
1002
1006
1008
1011
1010
1012
1015
1020
1020
1019
1019
1019
1023
1023
1023
1020
1018
1016
1014
1014
1012
1007
1004
998
996
993
989
984
977
975
972
970
969
965
960
958
959
958
954
953
952
949
951
949
948
949
944
943
947
946
948
946
944
942
945
945
946
947
944
944
944
947
946
949
947
946
947
950
951
949
950
948
948
951
953
953
952
951
950
953
956
953
952
951
954
955
954
951
951
952
950
953
953
952
948
950
950
949
951
948
945
945
946
946
946
943
941
940
941
943
942
937
938
935
937
938
938
935
935
935
935
936
936
934
932
931
931
932
933
931
930
927
931
931
931
928
929
925
929
931
930
928
925
926
929
931
931
930
930
933
937
942
944
943
943
941
945
947
951
948
946
944
944
948
949
949
946
942
941
939
937
936
935
935
942
941
940
936
930
926
927
926
923
922
919
918
913
915
914
911
912
911
912
913
913
914
910
909
912
913
912
913
910
911
913
915
913
912
909
908
907
901
889
879
879
893
911
935
983
1051
1127
1202
1272
1323
1348
1344
1306
1222
1114
1015
943
901
889
891
899
917
931
934
928
921
920
920
918
916
913
910
908
909
908
905
902
897
901
904
903
902
900
900
902
904
904
902
901
902
901
904
905
903
903
903
904
906
906
906
903
905
905
909
910
911
909
910
912
916
914
915
916
915
920
920
924
924
925
926
929
934
935
940
941
941
950
954
958
958
962
964
968
975
979
983
983
986
990
995
996
999
1000
1001
1003
1006
1011
1009
1010
1011
1012
1014
1015
1012
1008
1008
1005
1007
1005
999
994
989
988
984
980
976
970
962
958
957
952
950
947
939
938
941
939
933
931
930
929
930
931
930
927
923
925
925
927
926
925
924
926
926
926
928
923
926
926
929
927
929
928
922
927
929
930
930
930
929
932
933
935
935
934
933
936
937
938
935
936
935
937
937
938
936
935
935
936
938
937
934
932
934
932
935
934
932
932
931
932
933
930
929
928
925
926
929
929
926
923
921
922
924
925
923
921
920
921
924
922
921
919
920
919
921
921
920
918
917
915
918
918
915
915
914
916
916
916
915
914
915
915
916
915
915
914
911
913
914
914
915
913
915
915
919
918
919
920
921
927
932
932
931
931
929
932
936
937
937
936
934
936
939
941
940
936
934
932
932
927
927
927
929
931
931
929
924
921
918
920
919
916
913
910
908
907
908
905
904
902
902
904
904
905
903
901
900
902
904
901
899
901
902
903
908
906
906
906
904
902
897
886
877
872
878
892
912
944
1004
1077
1155
1230
1297
1344
1361
1343
1273
1169
1058
969
911
893
885
888
895
912
925
927
921
916
915
914
914
913
910
906
908
905
904
902
899
904
903
903
901
900
898
900
903
902
902
899
898
900
901
900
900
900
898
899
902
904
901
901
903
904
907
907
906
906
906
908
909
911
912
911
912
914
920
921
919
919
922
927
931
934
935
936
938
944
947
948
951
956
959
963
969
971
975
977
980
987
990
991
993
994
996
999
1004
1005
1007
1008
1007
1010
1013
1015
1014
1013
1009
1011
1010
1008
1005
1000
996
996
993
990
983
977
972
969
964
961
955
952
948
945
947
941
939
936
933
934
936
933
931
929
928
930
930
929
928
927
927
930
930
930
929
927
928
929
931
932
931
928
927
930
933
935
933
931
932
933
937
936
936
934
934
936
936
936
934
935
935
938
938
940
939
939
937
940
939
938
937
937
936
937
940
941
937
936
935
935
935
935
935
932
930
932
933
932
931
929
928
931
932
930
928
928
925
928
929
929
925
925
923
923
924
924
923
922
923
924
924
927
923
920
919
922
923
922
922
919
918
920
922
923
923
921
921
923
921
922
921
921
919
923
926
924
923
924
922
924
926
929
930
928
929
933
937
936
939
940
937
941
944
943
946
946
946
946
946
947
947
946
943
945
945
942
940
937
936
936
942
943
945
941
941
937
937
935
932
928
923
923
924
923
924
920
918
918
919
919
916
915
914
917
918
918
918
916
915
915
919
918
917
917
915
919
921
921
919
914
914
909
904
896
888
891
902
916
932
965
1017
1084
1150
1211
1270
1320
1349
1357
1333
1268
1174
1072
990
936
906
897
903
911
927
940
940
937
935
933
930
925
923
927
926
925
921
916
917
917
918
918
917
915
912
915
916
916
914
914
910
914
916
917
914
916
915
916
919
919
918
916
916
918
924
923
921
921
922
923
926
925
926
925
926
928
932
933
936
936
935
938
944
945
947
948
949
952
959
961
964
967
970
974
981
983
984
986
990
997
999
1004
1006
1006
1008
1013
1017
1020
1021
1023
1022
1027
1030
1031
1029
1027
1026
1028
1029
1027
1024
1022
1018
1017
1014
1015
1009
1002
999
994
992
988
983
979
976
973
971
967
964
962
958
959
960
957
956
953
950
954
955
953
952
948
950
951
951
951
950
951
949
948
953
954
952
954
950
953
957
957
957
956
955
956
960
959
960
962
958
961
963
961
960
961
960
962
964
965
964
961
961
964
964
963
963
962
962
962
964
964
962
960
960
962
962
962
958
959
957
958
957
958
954
955
952
956
956
954
952
950
948
948
951
950
948
946
946
947
947
947
945
940
941
944
947
945
945
943
942
943
947
946
945
942
943
945
948
944
943
945
943
944
947
947
948
946
945
950
953
955
954
956
957
958
961
960
964
963
964
967
968
967
966
967
966
966
966
963
960
955
954
955
960
961
961
960
957
953
954
950
948
944
942
941
943
939
938
937
936
936
939
933
936
934
932
934
937
936
935
934
934
937
938
938
935
935
932
936
936
928
919
905
896
901
911
926
945
981
1042
1121
1197
1270
1336
1378
1396
1388
1339
1237
1121
1019
949
921
917
921
929
946
956
959
954
949
945
944
943
942
943
937
934
931
928
931
934
930
929
927
927
928
930
928
929
927
926
928
929
929
929
928
926
929
931
932
931
932
932
932
934
934
936
935
936
939
942
941
943
941
942
946
949
949
952
952
953
958
962
964
966
967
970
976
981
983
987
988
992
999
1005
1005
1009
1011
1013
1019
1023
1027
1029
1031
1031
1036
1041
1044
1044
1044
1045
1047
1051
1049
1047
1047
1045
1046
1045
1040
1033
1030
1025
1023
1021
1013
1008
999
995
992
990
984
982
977
975
972
971
968
966
966
964
964
965
965
962
961
961
961
965
963
962
962
961
963
966
963
963
961
961
961
966
963
963
965
964
966
970
968
968
968
966
970
972
970
970
969
970
969
974
974
970
967
968
971
973
970
967
967
967
970
974
970
968
965
962
965
968
964
964
962
962
962
963
962
960
960
956
959
960
956
955
952
952
953
955
955
954
954
952
950
955
952
951
950
949
951
952
951
953
948
949
950
951
952
951
950
949
952
953
951
952
948
949
951
954
953
955
958
961
962
967
966
968
966
967
971
976
974
973
972
973
977
977
974
972
969
966
964
963
964
966
965
966
969
967
960
954
952
949
953
952
947
948
943
942
944
945
943
940
939
939
940
942
941
939
938
936
940
945
942
941
940
939
940
943
941
932
919
909
907
918
933
953
990
1052
1132
1213
1282
1341
1381
1396
1376
1306
1191
1070
979
934
921
921
927
945
961
967
963
958
952
951
951
949
948
948
945
943
942
941
941
942
939
938
936
937
937
941
940
939
936
938
938
940
941
937
938
938
941
943
944
941
941
942
942
945
943
944
943
944
947
951
949
951
952
954
955
959
961
963
962
964
970
974
977
979
982
982
990
996
999
1002
1005
1007
1011
1018
1022
1023
1026
1029
1032
1036
1040
1040
1042
1044
1046
1050
1051
1049
1050
1048
1049
1048
1046
1041
1038
1035
1033
1031
1026
1016
1011
1007
1006
1001
997
994
987
985
983
983
981
978
976
974
974
975
975
974
970
971
970
973
972
968
968
971
971
972
972
970
965
969
971
974
975
974
972
970
973
976
976
977
977
976
977
980
980
978
978
979
979
982
982
980
979
978
980
983
981
980
978
980
978
982
980
979
975
973
975
976
974
975
971
973
971
972
971
972
971
968
968
970
970
969
966
965
967
971
969
967
964
961
965
966
965
964
960
960
961
962
961
959
957
960
961
963
962
960
960
958
960
963
961
959
959
956
959
960
963
963
960
964
969
972
978
975
972
976
979
983
982
980
980
982
981
985
985
982
982
980
981
979
979
971
968
969
975
979
978
973
969
966
965
965
965
962
959
957
958
958
954
952
949
950
950
952
950
950
950
949
953
951
952
953
952
951
952
954
953
952
950
949
944
936
926
919
925
937
957
991
1045
1111
1183
1253
1318
1362
1382
1369
1310
1209
1095
1011
955
931
928
937
958
975
977
968
961
957
957
959
957
954
949
948
947
949
947
945
943
943
945
947
947
943
941
944
946
948
947
948
944
944
946
948
949
948
946
948
950
951
952
952
950
952
955
958
959
960
958
958
963
967
966
969
967
971
975
979
983
984
988
990
995
1004
1006
1008
1013
1014
1021
1025
1028
1031
1031
1034
1038
1044
1047
1048
1048
1052
1054
1054
1056
1054
1051
1049
1051
1047
1045
1040
1034
1029
1027
1026
1020
1013
1008
1003
1002
998
996
992
987
985
985
985
981
979
978
976
977
976
974
973
973
973
975
978
978
976
974
975
976
980
978
979
975
976
979
982
982
980
980
982
980
983
982
983
981
982
983
983
984
982
981
978
983
983
981
982
984
982
984
984
985
982
983
981
983
986
983
979
978
979
978
977
981
978
976
978
978
977
978
976
975
973
974
976
975
974
969
969
968
970
969
968
966
965
967
968
969
966
966
963
967
968
966
966
964
963
964
967
966
964
963
963
964
966
964
964
963
963
966
970
972
974
975
978
980
982
982
980
980
982
985
987
986
985
985
987
989
988
988
984
980
978
975
977
978
979
979
979
979
975
973
972
966
966
965
964
963
960
957
954
957
958
955
953
950
952
954
954
953
953
948
951
953
953
954
952
952
950
954
955
954
953
947
939
930
920
919
923
937
958
995
1055
1132
1206
1277
1346
1396
1417
1404
1350
1250
1131
1031
966
937
929
933
948
966
979
976
967
963
960
961
959
960
955
949
947
947
949
946
945
945
943
944
948
945
943
943
944
946
947
946
944
943
944
945
949
948
947
945
945
948
951
949
952
949
950
952
953
957
956
955
957
961
962
965
966
963
966
971
975
980
981
983
986
992
995
1001
1005
1006
1010
1015
1018
1023
1025
1029
1033
1038
1041
1043
1044
1042
1046
1050
1053
1055
1054
1054
1055
1056
1058
1058
1054
1050
1049
1048
1045
1043
1037
1031
1026
1022
1019
1015
1009
1002
999
997
995
991
988
983
980
981
980
979
977
972
973
971
974
975
974
969
969
972
973
975
972
971
972
972
971
975
971
971
970
971
975
974
974
972
974
976
980
979
977
976
978
980
982
982
980
979
978
980
982
982
979
978
979
979
982
978
978
979
980
980
980
980
980
978
979
978
981
975
974
973
973
976
975
974
975
971
972
972
974
974
973
971
970
970
971
968
967
967
966
969
969
967
966
965
965
966
966
966
965
964
963
965
967
965
962
962
963
961
965
966
966
963
964
964
966
966
965
961
963
962
964
965
961
961
965
970
972
978
978
975
976
979
982
980
981
983
982
984
986
985
985
985
987
988
985
985
981
977
975
974
975
978
979
977
974
974
972
969
966
963
962
962
962
961
958
955
953
951
954
952
951
949
949
951
952
951
950
945
946
948
950
953
952
950
949
951
954
951
947
935
921
914
915
928
942
965
1015
1085
1165
1242
1310
1364
1400
1409
1393
1336
1235
1124
1025
964
939
934
933
939
958
972
977
970
961
958
957
957
959
955
951
948
944
946
946
946
945
941
940
942
943
943
941
939
938
942
945
944
943
941
941
943
945
945
944
941
944
947
951
951
950
949
950
951
953
956
955
953
955
958
964
963
964
965
967
971
975
978
979
979
984
991
997
999
1001
1004
1007
1014
1018
1022
1022
1023
1027
1035
1037
1041
1042
1043
1044
1048
1054
1054
1056
1054
1056
1058
1059
1059
1055
1048
1050
1050
1048
1048
1039
1035
1031
1026
1026
1020
1015
1007
1002
1001
999
995
990
983
980
980
980
979
974
973
973
972
976
975
972
971
968
970
972
972
969
966
965
968
972
972
970
971
971
971
975
973
972
970
971
976
977
978
976
972
976
978
980
979
978
977
976
980
980
980
978
976
976
980
979
978
979
977
977
977
977
977
976
974
976
978
977
978
975
972
971
973
974
974
970
970
971
971
971
972
968
964
967
965
967
966
963
961
962
962
964
967
963
962
963
963
965
964
961
958
957
958
960
958
955
955
957
957
960
960
957
955
955
957
960
960
957
958
957
958
958
959
958
958
958
959
961
965
969
970
973
971
975
975
974
971
972
976
978
979
979
976
979
982
985
984
981
978
975
974
973
972
970
970
972
971
973
972
966
962
958
961
962
957
954
950
950
954
952
952
947
947
946
948
950
949
948
948
947
946
949
948
948
947
948
949
951
951
951
945
946
942
932
918
915
920
933
952
986
1045
1121
1194
1267
1334
1372
1385
1365
1301
1200
1093
1009
954
929
923
929
948
967
973
967
960
958
957
959
958
955
949
948
945
948
947
945
943
942
942
945
944
941
941
940
944
943
942
941
939
942
944
946
945
943
942
943
946
948
946
945
946
945
949
948
948
948
949
950
952
955
959
958
956
959
965
970
969
968
969
972
978
981
983
984
985
989
994
999
1000
1006
1007
1012
1018
1022
1020
1023
1024
1029
1033
1038
1039
1039
1041
1043
1047
1050
1050
1050
1050
1053
1051
1053
1050
1049
1045
1044
1042
1038
1034
1028
1021
1019
1015
1014
1010
1004
1000
997
995
993
990
985
980
978
983
983
982
979
977
973
977
978
976
972
972
974
975
977
977
976
975
975
977
977
978
977
977
976
978
980
981
979
976
976
978
981
981
979
979
980
983
983
986
982
982
982
985
984
984
981
983
982
981
983
983
981
980
980
980
982
980
979
977
977
976
980
980
981
975
975
977
978
978
975
972
972
971
973
972
971
968
969
966
972
971
968
964
964
964
967
966
964
961
963
963
962
962
963
962
962
965
967
966
965
961
961
965
966
962
963
962
961
963
963
964
961
962
962
965
968
968
972
973
974
976
980
981
979
978
978
983
986
987
983
979
981
984
988
986
984
982
978
978
978
974
975
974
976
978
979
979
974
968
966
967
967
967
962
960
955
960
960
959
956
954
955
953
956
956
954
952
950
953
955
955
953
952
953
955
956
959
956
952
952
953
953
949
939
929
927
933
945
960
981
1016
1075
1141
1204
1261
1310
1348
1369
1370
1333
1253
1151
1057
984
946
930
933
941
959
970
978
974
969
965
958
961
963
963
962
955
949
952
950
952
950
950
948
949
947
948
950
950
944
950
949
951
952
950
947
948
951
951
952
952
949
948
950
950
952
954
952
952
952
956
958
956
957
959
962
965
965
964
965
965
970
972
973
973
974
976
981
987
990
988
991
996
1001
1007
1007
1009
1011
1014
1019
1024
1030
1029
1031
1031
1035
1040
1043
1044
1046
1047
1048
1053
1054
1055
1053
1053
1057
1058
1059
1055
1051
1049
1049
1047
1044
1039
1033
1029
1027
1025
1021
1015
1009
1004
1002
1001
998
992
989
987
989
984
985
982
978
980
978
979
980
976
975
975
976
979
978
976
974
972
974
976
975
976
975
977
980
978
982
980
977
977
980
983
983
981
980
979
983
986
985
985
984
985
988
989
986
985
983
983
987
986
988
987
984
985
989
990
989
985
983
986
987
988
987
986
982
982
983
985
984
983
979
979
980
982
981
978
976
976
976
979
977
975
972
970
974
975
975
973
970
971
972
974
973
971
971
968
968
971
969
970
968
970
969
970
970
967
966
966
966
967
969
965
966
967
968
970
970
969
970
971
974
979
980
981
981
981
983
984
986
987
988
989
990
993
992
991
992
992
991
992
989
986
981
981
981
984
985
985
985
981
980
978
973
972
967
964
965
964
964
961
958
956
955
957
958
956
953
956
957
958
958
957
955
955
956
959
958
957
956
955
953
949
938
922
915
924
936
958
996
1053
1127
1206
1283
1353
1402
1422
1407
1344
1237
1121
1018
955
931
931
942
964
983
984
977
971
967
967
968
963
960
956
954
956
955
953
950
947
949
950
950
947
947
946
949
950
951
950
946
948
949
951
951
951
949
950
951
955
955
954
951
952
957
959
961
957
958
960
964
966
967
967
967
972
974
980
981
983
986
987
992
999
1000
1005
1006
1008
1014
1021
1024
1027
1027
1031
1039
1043
1047
1047
1048
1052
1056
1060
1061
1062
1060
1064
1066
1067
1064
1061
1061
1059
1058
1057
1050
1048
1041
1037
1035
1031
1025
1017
1010
1007
1005
1000
998
993
988
988
987
986
985
983
979
980
977
979
979
980
978
976
978
981
979
976
976
976
978
981
980
981
977
979
982
983
984
983
983
983
985
986
987
986
984
983
986
990
989
986
985
986
987
988
989
988
985
986
985
988
988
986
984
984
985
985
986
984
983
982
983
985
984
981
981
980
981
981
980
980
974
978
979
983
977
976
975
971
971
973
972
972
969
967
969
971
969
967
969
966
969
969
967
966
966
966
967
970
969
969
965
966
966
969
969
967
964
963
969
968
968
967
968
971
972
978
983
983
978
980
984
983
983
986
986
986
990
990
991
989
988
989
987
987
983
979
977
978
984
984
981
977
972
970
970
967
968
964
958
959
961
960
958
957
954
953
956
957
956
957
954
953
955
959
960
958
954
955
956
954
950
938
919
919
927
940
961
1001
1064
1150
1238
1319
1382
1414
1409
1355
1248
1124
1016
951
931
933
945
963
980
981
974
966
964
965
964
961
953
951
952
953
951
948
947
947
948
949
947
949
947
943
947
948
949
947
945
947
949
949
949
948
948
949
951
952
955
953
952
955
958
960
960
959
960
961
965
969
971
970
970
972
979
981
986
988
988
993
1000
1003
1006
1010
1013
1016
1023
1027
1029
1033
1035
1040
1043
1048
1050
1052
1052
1055
1058
1062
1065
1064
1065
1064
1067
1067
1065
1063
1058
1054
1050
1048
1048
1041
1033
1029
1025
1022
1016
1010
1004
1002
1000
998
994
989
988
985
985
985
984
980
978
978
979
980
980
976
975
976
976
977
978
978
975
978
981
981
980
981
978
978
980
982
981
982
981
979
982
984
986
985
983
986
986
986
987
985
983
983
984
987
988
985
982
983
985
987
986
981
980
981
982
982
982
980
977
976
978
980
981
978
974
976
976
976
976
973
972
969
970
970
973
971
967
969
968
970
969
967
965
966
968
970
969
969
964
964
966
966
963
962
961
962
963
964
967
965
960
963
966
965
963
961
957
962
963
963
967
968
968
969
975
978
979
978
978
978
978
981
986
986
985
983
987
989
990
988
984
981
981
980
976
975
975
979
981
982
979
974
968
966
966
969
965
962
959
959
959
959
957
957
951
952
954
959
959
955
954
955
955
956
956
956
956
957
956
957
956
950
937
926
924
930
944
958
986
1040
1108
1184
1249
1314
1362
1392
1397
1365
1287
1181
1076
997
953
936
932
940
954
974
979
975
969
964
960
960
962
960
956
952
947
948
949
952
952
946
946
946
949
950
950
949
946
945
947
949
950
949
945
948
949
952
951
952
951
950
951
954
955
952
953
955
957
960
961
960
960
962
965
967
968
968
969
972
978
981
985
985
987
990
992
999
1003
1004
1007
1011
1016
1021
1023
1024
1027
1030
1035
1041
1042
1044
1045
1048
1050
1051
1054
1055
1053
1058
1057
1059
1057
1055
1051
1050
1049
1046
1044
1042
1035
1033
1027
1025
1020
1015
1009
1006
1005
1002
999
994
992
990
989
990
987
986
981
982
983
984
982
982
979
980
978
981
982
980
978
978
982
984
984
984
981
982
985
988
987
988
984
984
988
990
990
988
985
987
988
990
991
988
986
988
990
992
990
987
985
986
991
991
992
988
982
981
985
986
987
983
982
983
984
982
983
981
976
977
981
980
979
978
976
975
977
977
976
975
973
971
975
974
975
973
969
968
972
973
973
972
969
968
971
972
972
971
967
969
971
971
972
970
966
968
973
979
980
979
982
985
985
987
989
985
985
988
990
994
992
991
992
994
996
995
994
989
987
984
985
983
984
986
985
984
984
983
980
975
970
970
969
970
969
966
963
962
963
962
960
959
956
956
957
959
960
960
957
959
960
962
962
961
958
958
960
959
958
952
937
930
929
937
945
959
977
1022
1085
1158
1233
1298
1355
1390
1399
1374
1302
1194
1088
1005
956
939
936
941
956
975
981
979
974
967
965
965
969
969
965
958
953
953
955
954
955
951
950
949
951
952
955
953
951
951
949
955
953
952
951
951
952
955
954
955
952
953
956
957
958
956
956
958
962
963
963
964
963
965
967
971
972
973
974
976
977
982
984
985
989
992
996
1002
1004
1005
1008
1012
1018
1024
1025
1029
1029
1033
1038
1043
1045
1047
1047
1050
1054
1057
1061
1061
1061
1063
1066
1067
1067
1065
1061
1060
1060
1059
1054
1050
1045
1042
1038
1037
1030
1027
1019
1014
1013
1008
1004
999
994
991
991
991
987
986
986
984
985
986
983
982
981
978
980
982
984
978
978
980
981
984
983
983
981
982
985
985
986
984
985
984
986
989
989
988
986
991
992
988
992
989
985
989
987
989
992
990
989
990
990
991
988
989
986
986
989
989
989
987
985
985
986
986
985
982
980
980
982
983
982
980
978
978
978
981
979
979
974
976
976
978
979
977
973
974
975
976
977
974
970
971
972
974
974
975
971
972
973
975
974
972
970
969
971
973
975
972
967
968
971
973
972
972
970
972
975
977
981
982
983
986
987
988
989
988
986
987
992
997
995
993
991
991
996
999
997
991
990
988
987
984
983
985
982
985
989
987
983
982
976
974
974
974
972
970
967
964
966
965
962
959
958
960
961
962
962
960
958
960
961
961
962
961
959
957
961
961
960
961
957
957
955
948
935
923
923
932
947
968
998
1052
1118
1192
1261
1325
1377
1408
1409
1381
1311
1203
1091
1002
953
937
938
946
960
973
980
980
976
973
971
968
966
963
967
963
960
957
954
952
951
951
953
950
948
948
951
951
952
952
949
948
950
953
953
951
948
950
950
953
955
954
949
954
955
956
956
957
954
956
959
962
959
961
958
961
966
968
968
968
968
967
973
978
978
980
982
985
987
990
993
995
998
1002
1007
1011
1015
1017
1018
1024
1029
1035
1037
1039
1038
1041
1049
1054
1056
1057
1059
1061
1063
1066
1068
1067
1065
1069
1069
1071
1070
1065
1064
1061
1059
1060
1054
1050
1044
1039
1035
1034
1030
1023
1016
1013
1012
1010
1005
1000
994
991
991
990
990
988
981
982
984
986
981
978
976
978
980
981
982
978
976
980
979
980
979
979
977
979
983
986
984
983
979
981
983
987
987
984
982
984
986
989
987
987
985
984
984
988
988
984
984
986
986
992
988
987
984
985
985
987
987
983
982
984
984
985
985
983
980
979
979
982
979
975
973
975
976
978
978
975
972
973
973
975
972
970
970
969
970
970
970
970
966
968
969
969
968
964
963
965
967
968
967
965
964
965
966
969
968
967
965
966
967
972
971
970
969
975
979
983
983
981
978
982
984
987
988
988
986
987
989
993
993
991
989
987
985
983
982
978
975
976
979
984
984
979
973
970
969
967
967
964
960
959
960
961
957
957
954
953
954
956
955
952
947
951
953
955
953
953
951
952
953
955
955
955
953
951
952
946
935
921
914
919
932
946
970
1010
1068
1144
1217
1285
1345
1387
1401
1388
1336
1243
1130
1028
962
932
933
941
954
966
975
976
970
967
963
961
957
957
956
956
952
948
943
946
944
947
948
947
945
945
946
946
945
946
941
943
943
946
946
944
944
943
943
944
946
946
944
944
948
948
946
947
947
950
951
955
954
955
954
957
957
960
959
963
961
962
967
968
970
974
975
978
983
988
989
988
992
995
1000
1006
1010
1011
1014
1021
1025
1028
1031
1033
1033
1037
1041
1046
1047
1048
1047
1051
1054
1055
1053
1054
1054
1055
1056
1056
1054
1049
1048
1041
1040
1036
1029
1024
1019
1015
1013
1010
1002
1000
994
990
986
985
982
982
981
980
978
977
979
977
973
975
974
976
971
971
968
970
973
975
976
974
972
972
975
976
978
975
975
976
978
979
979
980
979
980
981
982
980
979
978
978
979
979
980
978
977
980
981
982
982
980
978
978
979
981
980
978
975
976
975
978
977
975
973
973
977
978
975
972
970
970
971
970
972
970
966
969
970
967
966
966
965
965
966
963
964
963
963
963
963
964
962
961
960
960
961
959
962
961
959
959
960
962
961
960
957
958
961
962
965
963
964
965
967
971
974
974
975
975
976
978
980
981
981
983
982
985
984
982
981
981
982
983
981
975
971
970
977
979
979
974
971
970
970
968
966
962
959
958
958
959
957
952
948
949
952
955
956
951
951
952
952
955
954
952
952
952
951
952
952
951
950
949
949
951
948
934
922
923
930
944
957
983
1026
1090
1158
1219
1277
1328
1359
1370
1353
1289
1196
1098
1016
959
933
923
929
944
965
974
971
962
962
959
957
957
958
956
953
951
949
949
949
950
947
944
944
947
948
948
948
944
941
945
948
947
948
947
943
942
944
946
947
947
948
949
952
953
952
951
951
950
953
956
956
954
955
957
961
965
965
967
965
967
971
974
980
983
982
984
989
996
995
996
999
1002
1004
1009
1016
1017
1020
1022
1027
1028
1032
1034
1030
1036
1041
1045
1043
1046
1047
1051
1049
1051
1052
1048
1045
1047
1046
1044
1041
1038
1033
1029
1027
1025
1021
1014
1011
1007
1006
1002
998
996
990
989
987
987
986
985
980
978
980
979
981
978
976
977
978
980
978
977
977
975
978
980
979
979
977
978
979
980
981
980
978
980
983
982
983
984
980
982
981
985
985
983
982
982
985
986
987
985
984
985
986
988
986
985
983
984
986
989
987
983
982
982
987
987
988
985
983
984
984
985
987
984
981
979
981
982
982
975
975
977
981
981
979
979
976
975
975
977
975
974
972
972
974
974
974
971
970
970
972
975
973
972
969
971
972
970
975
970
968
969
970
971
972
972
969
974
979
984
987
987
983
984
988
990
990
990
990
992
994
993
995
994
991
992
990
991
988
983
982
979
983
986
988
986
981
982
978
978
977
971
965
967
968
966
964
961
963
960
958
957
957
955
956
953
956
957
958
957
955
955
957
957
956
956
956
954
958
958
953
945
932
925
926
936
947
964
994
1048
1111
1176
1240
1301
1350
1381
1392
1375
1318
1227
1120
1028
964
933
921
922
938
961
977
979
973
965
961
962
963
964
963
958
952
949
951
949
950
948
947
948
950
950
951
948
946
947
950
950
949
945
945
945
948
952
950
948
947
949
951
953
954
951
950
952
956
958
957
956
956
957
961
963
963
961
961
966
969
974
974
976
978
979
985
988
990
992
996
1001
1006
1012
1013
1015
1018
1024
1027
1031
1035
1034
1037
1041
1045
1050
1051
1051
1053
1055
1059
1062
1062
1060
1058
1059
1058
1056
1054
1049
1046
1044
1039
1038
1030
1024
1019
1015
1012
1007
1003
999
993
990
990
987
984
982
981
980
980
980
980
977
975
976
976
976
976
974
972
975
976
977
977
975
975
976
978
979
980
980
978
978
981
983
982
981
981
979
981
982
982
982
980
982
985
984
984
984
982
983
985
985
985
984
984
980
983
984
984
983
978
980
983
982
982
979
978
977
976
979
979
976
975
973
973
975
976
974
969
973
973
975
972
971
967
969
971
972
973
970
968
968
971
971
972
968
965
968
970
972
970
967
967
968
972
975
975
977
978
979
982
985
983
983
984
988
989
992
989
990
989
991
992
991
989
985
983
981
980
982
983
983
983
983
980
980
975
972
967
967
964
964
963
961
958
957
958
958
957
955
955
955
956
958
956
956
955
957
956
958
961
954
954
954
954
949
936
922
917
926
941
961
999
1058
1132
1212
1283
1346
1391
1408
1384
1315
1204
1089
994
942
928
930
940
960
975
979
975
968
965
966
963
965
959
955
956
951
950
950
948
949
950
951
950
947
945
944
948
948
947
948
945
946
949
947
949
949
947
950
951
953
953
951
950
953
955
956
958
957
955
958
960
962
964
963
964
968
971
975
976
979
980
984
987
995
999
1000
1001
1007
1014
1018
1023
1026
1024
1030
1038
1040
1043
1044
1046
1049
1051
1057
1058
1058
1059
1061
1064
1066
1065
1064
1061
1062
1061
1059
1057
1050
1043
1040
1038
1033
1028
1022
1013
1010
1007
1005
999
994
991
989
987
987
985
981
979
980
978
979
980
977
973
976
977
978
977
977
976
976
975
982
979
979
978
978
980
983
984
981
981
979
981
984
983
984
981
984
987
988
988
985
984
985
984
986
984
982
980
981
983
984
982
982
979
978
980
982
979
978
978
977
976
975
976
975
972
973
974
974
971
968
968
968
969
969
967
967
966
967
966
967
968
968
965
965
965
967
963
963
964
966
967
971
970
973
974
978
981
982
983
982
981
983
987
991
992
988
988
989
992
993
989
986
980
980
978
976
979
979
978
979
979
976
975
972
967
966
965
965
961
961
958
954
955
954
955
951
950
951
949
953
953
954
951
952
954
954
953
952
951
952
953
951
942
928
914
911
917
933
952
981
1040
1121
1208
1288
1355
1401
1412
1396
1331
1220
1097
1001
943
926
929
940
958
972
974
969
962
959
960
955
954
953
952
950
945
945
941
941
942
944
944
943
941
941
942
944
943
942
939
939
942
944
943
942
941
946
947
948
947
947
945
948
948
949
949
950
952
955
958
960
961
963
963
966
968
973
976
977
979
984
988
995
999
998
1002
1009
1012
1017
1019
1023
1025
1028
1035
1039
1041
1042
1043
1045
1047
1052
1055
1055
1054
1053
1055
1057
1056
1053
1049
1046
1044
1041
1035
1033
1023
1020
1016
1014
1008
1002
994
992
988
990
985
983
977
977
979
980
979
975
973
973
973
977
973
975
971
975
975
976
976
973
974
973
975
977
976
978
975
976
977
979
979
978
976
977
980
983
983
979
978
979
982
983
983
982
981
982
982
983
982
981
976
979
977
979
978
977
976
975
976
977
977
975
974
973
974
975
976
974
970
972
971
972
969
971
968
968
970
971
970
968
966
965
967
968
965
964
961
961
964
966
964
965
962
965
965
967
967
964
961
963
965
968
966
966
965
967
973
979
980
981
977
978
979
980
982
983
983
986
986
983
986
986
986
984
985
986
982
977
972
970
974
978
979
980
976
974
971
969
966
965
962
963
962
963
959
957
953
952
953
954
954
953
951
952
955
957
954
954
950
955
956
956
957
954
952
953
954
950
941
925
918
923
935
951
977
1022
1090
1168
1246
1315
1359
1383
1374
1322
1230
1127
1034
967
931
926
934
955
972
977
969
963
960
961
961
958
953
952
951
950
949
947
945
944
947
946
947
943
942
944
947
949
949
944
944
944
948
948
946
946
944
947
948
949
950
947
945
952
953
955
956
951
950
954
957
959
960
963
964
967
969
973
975
977
977
980
989
992
992
997
998
1003
1008
1015
1018
1017
1020
1024
1027
1031
1034
1035
1035
1039
1042
1047
1047
1050
1047
1047
1047
1050
1049
1049
1042
1040
1041
1039
1036
1031
1024
1021
1019
1016
1011
1005
999
992
994
993
992
990
985
981
982
983
980
980
976
974
975
977
976
972
973
975
978
979
977
973
975
974
974
977
978
978
977
976
979
980
980
979
976
980
980
982
981
981
977
979
981
982
984
984
980
982
984
985
985
983
980
981
981
984
986
981
978
978
982
983
983
981
978
976
980
981
979
977
975
974
977
974
976
975
970
969
974
972
973
969
966
970
970
969
971
969
965
965
966
967
969
966
965
964
964
964
966
965
964
965
966
966
964
964
962
963
967
967
969
973
973
976
980
982
982
981
977
983
985
987
988
987
983
987
986
990
990
988
984
982
981
980
979
976
974
978
982
985
980
976
970
969
968
967
965
961
959
961
959
960
956
954
952
951
952
956
955
952
950
952
953
955
954
952
953
952
953
953
955
953
947
944
938
927
922
922
931
950
979
1029
1101
1177
1247
1312
1365
1390
1391
1350
1257
1139
1033
963
930
922
929
948
969
980
974
965
959
958
960
957
957
952
949
946
945
949
946
945
943
941
942
946
944
943
940
942
946
946
945
944
943
943
944
946
945
943
944
945
947
948
947
947
945
948
949
952
952
953
954
956
959
961
960
962
961
965
970
972
974
972
975
978
984
987
990
989
993
999
1005
1008
1011
1013
1015
1019
1025
1029
1030
1031
1033
1036
1040
1043
1043
1046
1044
1048
1052
1054
1056
1055
1054
1051
1052
1053
1050
1047
1045
1040
1041
1039
1034
1026
1019
1018
1013
1015
1010
1005
996
995
993
990
990
983
978
980
980
981
978
976
972
971
974
976
974
972
970
972
973
974
974
973
972
971
973
975
976
974
972
973
975
976
975
974
974
975
976
979
978
977
976
976
977
979
980
979
976
978
979
981
980
979
977
978
980
981
978
978
976
977
979
978
980
976
975
976
978
978
976
975
974
974
975
974
975
973
973
972
972
973
971
968
967
967
968
967
966
965
963
964
965
966
965
965
961
963
965
963
962
961
959
961
963
964
963
964
960
964
968
971
973
974
972
976
978
981
979
978
978
981
984
984
983
982
983
984
986
986
985
982
977
975
975
975
975
973
973
976
976
970
970
967
961
959
958
961
958
955
951
952
951
953
951
948
948
949
950
953
952
949
948
946
948
949
948
947
946
947
948
947
945
933
918
911
909
918
931
947
979
1041
1124
1208
1283
1350
1392
1409
1389
1329
1224
1104
1005
941
919
921
925
935
956
967
972
968
961
955
952
953
954
953
948
945
939
943
939
942
941
940
937
936
938
939
939
939
935
936
938
938
939
938
936
938
938
940
939
937
937
939
942
942
943
942
941
944
947
950
950
951
949
951
955
957
960
960
959
963
967
970
975
974
976
981
986
990
995
995
999
1005
1010
1016
1020
1019
1022
1026
1027
1034
1036
1037
1040
1043
1046
1049
1050
1051
1049
1054
1055
1055
1053
1050
1050
1048
1044
1043
1041
1037
1032
1028
1025
1021
1017
1009
1004
1000
997
996
993
987
982
981
981
980
977
976
971
971
972
973
971
971
967
968
969
970
969
968
966
966
969
973
972
971
970
970
973
975
976
976
974
973
974
975
977
975
975
977
976
980
977
977
976
977
981
979
978
980
978
979
980
982
980
980
979
982
981
982
980
978
976
976
977
976
975
973
970
971
975
975
974
973
969
971
972
971
970
971
967
966
966
966
967
964
964
964
965
965
964
963
960
964
963
964
964
961
961
960
960
963
965
962
959
961
960
962
962
964
966
969
974
976
975
974
974
977
981
982
984
983
981
982
982
984
985
984
981
981
982
980
976
971
969
972
975
977
978
975
972
970
969
969
965
962
956
959
959
957
955
956
950
951
953
954
951
950
950
951
952
956
953
950
949
949
951
953
953
951
946
940
929
921
917
926
935
952
986
1044
1116
1190
1259
1327
1374
1394
1387
1338
1245
1132
1030
965
934
926
930
947
970
979
979
970
963
958
961
964
959
955
951
951
951
950
950
947
946
947
949
950
950
948
945
946
949
949
949
946
947
948
948
950
949
950
946
948
952
954
952
953
950
954
954
956
956
955
956
960
962
964
965
964
964
969
973
975
978
979
980
983
987
994
995
995
998
1003
1009
1013
1015
1018
1019
1023
1029
1037
1036
1039
1040
1041
1045
1049
1053
1052
1053
1056
1058
1061
1060
1059
1058
1058
1057
1059
1053
1051
1042
1044
1041
1038
1033
1028
1021
1016
1015
1009
1004
1001
996
997
995
992
988
986
983
986
987
987
987
984
981
984
985
983
983
982
982
983
985
984
983
982
983
985
987
987
986
988
986
988
989
991
989
989
987
989
990
993
992
988
989
991
993
992
990
989
987
989
991
990
991
988
988
988
987
986
988
986
985
986
986
987
987
983
981
982
984
983
982
981
977
983
979
979
977
976
978
978
976
975
974
975
973
977
978
975
974
975
973
973
972
975
972
972
971
972
973
974
973
973
975
975
978
980
981
983
984
987
988
989
988
989
989
991
993
995
992
992
993
996
1000
998
996
993
988
989
988
986
983
986
987
991
992
989
982
979
976
976
976
978
974
971
967
968
968
967
965
965
961
962
963
963
964
962
962
964
965
967
965
962
960
962
962
964
961
960
952
943
937
936
941
951
966
996
1046
1110
1181
1242
1301
1353
1386
1388
1358
1289
1190
1093
1018
969
942
936
946
970
985
986
981
974
968
968
969
969
965
962
957
958
959
960
958
959
955
957
955
957
955
953
952
952
954
955
954
953
949
952
953
954
953
955
953
953
957
958
957
954
954
957
960
962
961
962
960
963
967
969
970
967
966
969
975
977
980
978
982
986
990
994
997
997
999
1005
1010
1013
1016
1017
1021
1024
1029
1034
1036
1036
1038
1042
1046
1048
1049
1051
1053
1054
1060
1060
1059
1061
1057
1058
1057
1054
1053
1051
1043
1042
1041
1038
1030
1028
1021
1021
1016
1015
1008
1004
999
997
996
994
990
987
985
985
985
983
985
982
980
982
983
984
980
979
977
979
983
984
984
984
982
982
983
985
985
983
982
984
987
988
989
988
984
988
989
990
990
989
988
990
992
992
991
991
989
990
992
992
992
989
989
987
988
989
991
988
985
988
987
989
987
987
982
982
987
987
986
982
982
983
982
984
982
977
976
976
977
978
976
976
973
972
976
975
974
971
970
970
973
975
974
971
970
972
972
973
972
968
968
970
973
973
976
977
978
979
984
985
985
983
982
985
987
991
992
989
987
989
992
994
993
990
984
985
984
982
983
980
980
983
985
983
981
976
969
970
967
963
963
960
960
960
959
958
956
951
953
953
955
956
956
953
950
952
955
954
953
951
951
951
953
953
949
939
924
914
915
922
935
949
982
1048
1130
1215
1293
1357
1401
1420
1406
1348
1244
1120
1010
944
919
922
940
960
975
976
971
965
962
958
957
956
954
952
946
944
942
942
944
942
942
938
938
940
940
938
940
939
938
938
939
939
939
940
936
938
939
944
943
944
941
944
945
948
947
948
946
949
953
954
955
956
956
960
964
968
968
971
969
976
981
984
989
991
992
998
1005
1009
1014
1016
1019
1024
1029
1034
1035
1038
1038
1044
1048
1055
1052
1053
1052
1054
1055
1055
1053
1054
1053
1050
1049
1045
1037
1032
1027
1024
1019
1013
1007
1002
995
993
989
987
985
981
975
976
977
974
971
971
967
967
968
970
969
967
967
967
968
970
969
969
967
969
974
972
971
971
968
968
972
973
974
973
972
975
975
976
976
976
970
974
978
978
978
976
975
975
977
977
975
972
972
970
974
974
973
972
970
971
971
973
972
969
968
968
971
972
970
966
964
966
968
966
968
965
964
963
963
965
964
961
959
962
961
963
961
957
955
955
957
960
959
958
954
957
957
958
957
955
954
954
958
960
960
962
960
965
971
974
973
971
972
974
976
976
977
978
977
979
981
984
983
980
975
972
973
972
969
967
968
973
974
973
969
965
958
959
958
957
952
949
947
948
947
947
943
941
939
942
944
944
940
940
937
941
944
944
943
941
938
941
941
939
931
917
904
899
906
918
938
968
1028
1110
1195
1272
1341
1395
1416
1407
1354
1245
1117
1000
930
912
916
931
950
966
964
957
954
951
949
946
940
939
937
935
932
931
928
931
931
930
931
929
927
931
932
932
930
927
927
930
931
932
932
933
931
934
936
937
935
934
935
937
941
942
942
939
941
946
949
950
952
956
957
962
967
969
973
973
977
981
985
991
994
998
1003
1008
1013
1019
1021
1025
1026
1028
1035
1040
1042
1044
1045
1048
1051
1051
1049
1049
1049
1047
1049
1045
1042
1037
1031
1027
1024
1020
1016
1008
1000
996
993
986
985
975
971
970
970
970
966
965
961
963
963
964
956
958
955
958
960
961
961
958
959
960
960
960
957
960
961
963
964
966
964
964
964
966
966
968
968
966
966
966
967
965
969
969
966
969
968
968
969
967
967
967
967
969
968
968
966
965
966
970
967
967
965
965
967
963
963
962
960
960
959
962
961
959
957
956
958
957
958
956
954
953
957
956
953
952
950
952
954
953
949
947
950
952
953
953
953
952
948
950
953
953
954
951
953
956
959
962
965
966
962
967
971
971
969
971
968
971
972
971
974
975
974
976
976
970
967
962
959
959
964
966
967
967
960
959
957
954
950
947
946
945
945
944
942
937
936
937
938
938
940
938
936
937
936
939
938
937
936
937
940
939
938
936
927
917
904
899
907
920
940
979
1046
1126
1207
1279
1341
1383
1396
1369
1292
1178
1058
971
926
913
915
928
949
963
963
955
947
944
943
945
944
940
936
932
930
931
933
932
933
931
929
932
932
935
932
930
929
932
930
930
931
930
931
934
934
933
931
934
935
937
938
936
938
939
939
942
947
947
948
948
949
954
953
957
957
958
961
969
973
975
979
982
982
985
992
998
1000
1002
1004
1010
1016
1018
1022
1024
1025
1029
1034
1035
1037
1038
1038
1041
1045
1048
1048
1045
1043
1043
1039
1038
1036
1033
1027
1025
1025
1017
1014
1005
1002
999
996
994
990
984
981
976
978
977
974
971
966
967
968
968
967
966
966
965
963
964
964
963
963
963
963
963
963
963
961
964
965
969
969
966
966
965
968
970
970
968
969
971
973
972
971
968
969
970
973
974
973
972
971
974
973
976
973
972
970
971
974
972
973
972
972
973
973
973
970
968
966
966
968
969
970
967
968
965
966
967
966
962
962
965
964
964
963
959
957
957
960
962
959
957
956
958
957
957
955
953
954
955
955
957
957
955
955
956
958
957
958
957
960
962
967
970
970
967
968
970
972
972
976
974
973
971
976
979
978
977
972
971
971
969
967
967
966
968
971
971
968
962
958
958
957
956
952
950
947
947
948
946
944
942
942
943
944
945
943
941
939
942
945
943
945
943
942
942
942
941
930
915
908
913
926
945
977
1029
1099
1178
1248
1309
1354
1377
1368
1317
1228
1119
1021
954
919
913
921
937
958
966
962
957
954
952
950
948
944
944
943
941
938
936
934
934
937
938
935
937
935
933
936
938
936
934
932
932
933
934
936
934
933
934
937
939
938
939
938
938
940
942
944
943
942
945
946
949
949
950
949
952
957
959
960
961
962
967
969
975
976
978
982
985
992
996
998
999
1003
1008
1013
1016
1020
1021
1022
1024
1030
1034
1038
1034
1035
1041
1045
1047
1047
1048
1047
1048
1052
1050
1048
1043
1039
1038
1036
1035
1030
1026
1022
1017
1013
1008
1003
997
993
991
988
986
983
978
976
978
977
974
973
968
968
968
966
967
967
966
965
963
964
967
967
965
962
965
969
968
969
969
968
968
969
972
970
968
968
973
973
975
972
973
971
972
976
975
975
975
974
976
977
980
978
976
975
975
978
978
977
977
974
973
977
977
975
973
973
973
975
974
975
972
971
970
972
972
971
969
968
967
970
965
968
966
966
967
966
967
963
962
960
960
962
961
961
960
959
960
960
958
960
958
958
958
960
961
960
958
957
957
957
961
956
956
958
962
963
966
969
971
971
971
973
974
976
975
977
979
980
981
979
978
981
984
980
980
978
974
968
969
970
971
971
974
972
972
970
967
963
956
955
955
956
954
951
947
947
949
946
945
945
945
942
942
946
947
944
944
943
944
946
946
947
944
943
946
944
943
936
925
914
905
907
916
930
948
986
1051
1129
1205
1276
1339
1386
1411
1410
1367
1284
1168
1057
975
935
923
924
934
949
966
972
969
957
951
952
952
951
950
946
939
937
939
940
937
936
934
930
933
936
934
934
930
931
932
934
933
934
932
930
934
936
938
935
933
932
936
940
940
938
937
936
939
941
941
943
942
942
946
946
951
950
951
950
952
956
958
961
962
962
967
973
973
977
981
983
987
992
997
1000
1004
1004
1010
1017
1017
1021
1024
1026
1030
1036
1039
1042
1042
1043
1048
1052
1053
1055
1056
1055
1058
1059
1062
1059
1056
1054
1055
1055
1054
1047
1041
1041
1036
1035
1031
1021
1016
1012
1008
1006
1002
996
990
985
983
983
983
979
975
971
973
972
973
972
972
968
968
971
967
969
967
966
967
968
970
968
967
966
968
967
971
969
970
968
971
973
974
973
974
973
974
974
976
975
975
974
977
975
978
978
977
976
976
980
980
979
978
978
977
976
980
978
978
977
978
979
979
977
976
974
975
978
976
975
971
974
974
974
974
973
970
968
972
971
971
969
968
966
967
968
968
965
963
965
964
966
966
962
962
960
962
963
964
964
962
960
963
964
964
962
960
961
961
965
965
965
966
968
973
978
980
978
977
977
980
982
983
985
984
983
983
986
987
986
984
982
981
978
976
974
972
974
977
979
978
973
969
966
964
963
962
958
955
953
951
953
951
948
945
944
948
950
947
948
945
944
946
947
950
947
948
947
947
948
948
946
941
931
920
913
912
920
930
948
984
1043
1117
1196
1275
1345
1393
1414
1401
1340
1236
1114
1018
960
934
928
931
947
961
973
970
963
958
954
951
953
952
947
943
938
940
939
938
935
935
934
936
937
936
935
935
935
935
936
936
936
934
933
937
938
939
938
938
937
938
941
942
940
941
940
943
944
945
946
947
946
949
952
954
954
957
956
960
963
963
966
969
971
976
979
983
987
989
991
998
1001
1008
1008
1012
1015
1019
1025
1029
1028
1032
1035
1038
1040
1046
1046
1047
1049
1053
1055
1055
1052
1053
1053
1053
1053
1050
1043
1039
1036
1032
1032
1029
1023
1016
1010
1008
1004
1000
994
990
986
985
985
982
980
975
971
970
971
969
968
963
963
965
967
965
965
965
964
962
965
966
965
964
962
964
965
968
965
967
965
967
969
967
965
964
965
969
969
972
971
967
966
970
971
969
970
969
969
971
970
972
969
970
968
972
970
972
969
966
964
966
970
968
964
963
962
964
968
967
965
964
961
963
964
964
962
961
957
958
960
959
958
956
956
954
956
956
956
954
952
954
955
954
955
953
951
952
955
955
952
952
951
952
952
953
955
954
953
955
961
966
966
967
967
968
971
969
970
968
972
973
975
975
977
978
977
978
977
976
969
968
963
962
967
970
970
970
966
965
961
959
954
953
951
951
952
950
946
944
939
942
942
943
943
941
939
941
943
943
941
940
942
944
945
944
942
941
937
931
923
911
908
910
923
944
976
1032
1106
1183
1255
1323
1369
1390
1377
1314
1211
1099
1009
949
922
915
919
936
956
966
965
958
949
948
949
950
944
941
936
938
938
939
938
934
932
934
934
934
935
935
931
933
935
938
936
933
930
932
934
934
934
934
933
937
941
940
941
939
937
939
942
941
942
943
942
946
948
951
951
950
949
953
959
963
964
965
966
972
976
979
981
982
984
991
999
1003
1005
1005
1006
1013
1019
1020
1024
1026
1027
1034
1035
1038
1038
1037
1036
1041
1047
1048
1047
1045
1042
1043
1041
1042
1037
1031
1026
1024
1019
1015
1012
1005
1001
999
997
992
988
983
979
977
980
977
977
972
969
968
971
970
967
965
966
968
968
969
966
968
965
967
972
970
969
966
966
969
972
973
974
971
973
973
978
974
974
974
973
977
977
978
978
976
974
976
975
977
976
975
974
977
979
976
974
973
973
975
977
975
975
972
973
974
972
973
970
969
969
969
971
969
967
965
964
965
966
965
967
964
962
963
964
965
961
959
958
960
961
961
961
959
957
958
958
960
960
957
956
958
959
958
960
955
955
956
962
961
962
960
962
968
971
973
974
972
972
973
976
976
978
980
979
978
981
983
984
980
980
978
976
975
972
968
964
969
973
973
976
972
966
963
964
962
960
956
953
954
955
953
950
947
945
946
949
946
946
943
943
946
947
948
946
946
946
947
950
948
947
944
941
939
934
921
911
917
930
948
979
1030
1103
1175
1245
1312
1361
1390
1391
1358
1283
1180
1077
989
933
911
915
933
956
969
966
958
953
952
952
953
949
944
940
943
944
941
941
937
937
939
940
940
938
937
937
938
939
938
939
936
935
937
940
940
938
939
938
939
942
942
943
941
941
944
946
947
946
947
944
949
950
953
954
955
954
960
963
964
969
969
970
975
978
983
985
986
990
993
999
1005
1008
1010
1011
1016
1021
1025
1028
1026
1031
1037
1040
1043
1044
1042
1043
1046
1050
1050
1050
1050
1049
1049
1049
1049
1043
1039
1037
1034
1032
1027
1020
1016
1011
1011
1006
1001
993
990
987
984
983
980
979
974
971
972
972
973
969
968
964
967
969
968
968
967
964
966
966
968
966
966
969
966
971
971
969
968
968
971
971
972
972
973
972
974
975
977
973
974
974
976
978
979
975
974
975
975
978
980
979
976
973
977
976
978
975
974
972
974
976
976
973
974
971
973
973
974
968
969
967
967
969
970
966
964
964
965
968
966
965
962
960
963
963
963
962
961
959
961
960
962
959
959
957
958
960
960
960
957
957
959
962
964
964
965
967
971
975
978
974
975
977
979
983
983
980
981
980
985
987
985
982
977
976
973
973
974
975
973
975
973
974
972
967
963
960
958
959
956
954
952
948
949
949
948
948
945
943
946
950
951
949
947
946
947
948
949
949
946
946
946
941
927
909
904
910
927
950
992
1059
1143
1232
1315
1382
1416
1417
1379
1292
1166
1044
959
923
917
927
948
970
974
970
957
954
954
956
953
949
946
943
940
944
942
940
939
937
937
938
940
940
936
934
937
937
939
937
939
937
936
942
943
943
940
939
939
945
942
944
944
945
947
951
953
955
952
954
955
960
961
961
963
965
970
974
977
978
981
982
990
996
1000
1003
1006
1010
1015
1019
1024
1024
1029
1031
1037
1040
1046
1047
1046
1048
1052
1056
1058
1057
1059
1059
1059
1059
1055
1055
1050
1048
1045
1042
1039
1034
1027
1023
1018
1016
1010
1004
998
993
992
988
985
986
980
977
978
977
976
970
971
972
970
970
970
969
967
968
970
971
970
970
970
969
970
973
972
971
971
971
973
975
977
976
974
975
976
979
979
978
978
977
981
982
982
982
980
976
979
983
983
982
978
977
981
982
982
979
979
977
979
981
979
978
978
978
976
978
978
977
972
971
974
975
973
973
970
969
970
971
969
970
968
968
968
968
967
970
968
964
967
967
967
964
963
962
962
965
964
963
964
960
965
965
965
965
963
962
965
967
971
972
974
974
977
980
980
979
978
981
987
989
988
988
985
988
989
991
988
985
979
976
975
976
978
978
977
972
971
974
970
965
964
959
959
957
957
955
951
950
950
953
953
952
950
948
949
951
952
950
949
946
949
951
953
949
945
934
921
913
912
923
940
970
1027
1108
1198
1279
1354
1406
1433
1421
1364
1260
1132
1017
945
920
926
935
954
971
979
973
966
961
959
958
956
956
952
948
945
944
945
946
943
944
944
942
944
946
944
942
940
940
944
944
944
942
942
942
943
945
947
946
948
947
948
951
952
950
951
951
953
956
957
957
961
959
962
966
966
967
969
973
974
980
984
987
989
988
996
1000
1006
1009
1009
1015
1022
1024
1028
1030
1031
1035
1038
1044
1045
1049
1048
1052
1055
1058
1059
1061
1058
1059
1060
1061
1064
1061
1056
1054
1052
1052
1048
1041
1037
1032
1028
1024
1020
1014
1010
1005
1003
998
997
994
990
985
986
984
982
982
980
977
978
980
979
978
973
976
976
977
978
979
978
975
978
978
978
980
979
979
983
981
983
981
981
977
978
982
986
988
982
983
982
987
986
983
985
985
985
987
988
988
985
985
984
989
989
986
983
979
982
982
984
981
979
978
980
981
980
981
977
977
978
978
978
976
974
971
973
975
975
973
973
972
972
973
969
967
968
965
968
967
968
969
968
967
966
969
968
966
967
966
969
970
968
966
966
966
966
970
968
968
967
968
970
973
978
978
979
981
983
987
986
986
986
986
989
993
990
989
989
989
992
993
989
989
985
981
981
982
982
982
984
984
981
981
978
973
971
969
968
966
967
966
964
961
960
960
960
960
959
957
960
960
960
958
956
954
958
961
961
960
959
955
959
960
962
957
949
935
928
928
936
946
961
988
1043
1111
1182
1250
1314
1366
1394
1395
1358
1279
1174
1075
1002
958
942
938
943
958
976
988
982
974
969
968
968
972
969
969
962
960
957
959
960
956
953
951
954
957
956
954
952
953
956
955
954
954
955
955
956
958
959
957
959
956
959
961
964
962
959
961
964
964
967
965
965
964
968
968
968
972
970
973
976
980
982
983
984
986
988
992
996
998
1001
1003
1009
1014
1015
1020
1020
1022
1026
1031
1035
1035
1037
1040
1044
1051
1054
1055
1058
1057
1059
1062
1063
1066
1063
1064
1067
1067
1066
1063
1063
1060
1058
1056
1054
1048
1046
1039
1038
1034
1030
1026
1018
1017
1017
1015
1009
1007
1005
999
1000
998
1000
996
994
994
995
994
996
994
992
992
994
994
995
994
992
993
994
998
996
998
997
996
999
997
999
999
997
998
1000
1002
1001
1001
1000
1001
1002
1006
1005
1004
1002
1002
1005
1006
1005
1005
1003
1002
1003
1004
1002
1003
1001
999
1001
1004
1003
1002
1000
998
998
999
995
995
994
995
993
997
994
993
991
989
990
993
994
991
987
987
988
990
991
990
986
985
987
988
991
988
985
983
986
989
989
985
986
985
987
988
988
987
988
985
990
992
993
994
998
998
1000
1005
1005
1003
1003
1003
1007
1010
1010
1009
1007
1009
1012
1013
1013
1010
1006
1004
1001
1003
1002
1002
1000
1003
1005
1005
1003
1001
997
991
991
992
992
988
983
981
984
984
982
979
979
976
977
980
980
977
977
977
979
978
981
980
978
977
977
978
979
979
974
974
975
975
968
955
945
941
948
960
973
996
1034
1095
1166
1233
1296
1357
1402
1420
1423
1392
1314
1210
1106
1025
977
959
956
963
976
994
1005
1004
1000
993
989
986
986
985
985
981
975
973
974
974
973
971
970
967
969
970
971
967
967
966
968
971
970
969
966
968
969
971
969
968
969
969
972
975
975
974
972
970
976
978
980
978
978
977
979
984
985
985
986
985
988
993
996
996
999
999
1004
1009
1012
1014
1016
1017
1022
1027
1032
1035
1037
1041
1046
1047
1050
1057
1057
1057
1060
1064
1068
1071
1071
1072
1076
1078
1079
1079
1078
1079
1080
1080
1082
1078
1074
1072
1069
1071
1066
1064
1058
1052
1048
1044
1041
1036
1028
1025
1021
1021
1014
1011
1009
1006
1006
1007
1007
1005
1002
999
1001
1002
1002
1000
1000
999
999
1000
1000
1002
997
994
999
1001
1002
1000
1001
1001
1002
1004
1001
1003
1001
1001
1002
1005
1006
1007
1008
1004
1005
1009
1007
1008
1007
1007
1009
1009
1009
1009
1008
1007
1009
1009
1010
1009
1008
1005
1006
1008
1007
1007
1006
1003
1004
1003
1003
1002
1001
1000
1000
1001
1001
999
998
996
996
999
999
994
995
994
995
996
995
994
991
992
991
993
992
992
989
987
989
993
992
989
988
988
989
991
991
989
989
986
987
989
989
988
986
985
986
988
988
986
986
986
987
990
988
988
986
987
989
991
990
993
993
996
1001
1004
1002
1000
1000
1002
1005
1009
1007
1010
1008
1008
1009
1011
1012
1013
1009
1006
1005
1004
1001
998
996
995
1001
1003
1005
1000
995
993
992
992
989
990
983
983
982
981
981
978
977
974
974
976
974
973
972
972
972
975
974
971
971
970
969
974
973
973
970
969
973
973
972
971
969
962
953
943
933
937
943
958
979
1021
1083
1161
1232
1298
1361
1406
1424
1422
1394
1324
1224
1121
1035
977
953
947
949
960
975
991
995
988
981
981
978
976
975
972
971
970
966
964
962
962
962
960
962
961
959
959
960
959
961
960
956
957
959
960
962
961
961
960
963
966
966
964
963
963
966
969
969
967
967
967
971
973
973
970
973
973
976
978
978
980
982
982
986
989
992
994
994
997
1003
1008
1010
1014
1015
1019
1023
1027
1033
1036
1037
1039
1045
1051
1053
1054
1056
1058
1064
1067
1069
1070
1068
1073
1072
1077
1077
1075
1074
1070
1071
1072
1069
1064
1062
1057
1053
1049
1045
1038
1032
1026
1023
1020
1015
1010
1002
1000
1001
1002
999
995
992
989
991
992
989
989
988
988
991
990
989
991
989
988
989
991
990
989
990
988
988
991
992
990
990
991
994
993
993
994
993
994
995
998
995
996
993
993
996
997
996
998
997
996
997
997
998
997
995
994
995
998
997
994
993
991
994
995
991
991
991
990
991
990
988
987
987
989
990
990
988
985
983
984
985
986
984
982
981
979
982
981
981
980
975
977
980
982
980
979
977
976
978
978
980
979
976
977
979
979
979
979
977
977
977
976
979
977
978
976
979
985
985
988
989
991
991
993
994
994
991
994
999
1002
998
1000
999
1000
1002
1004
1000
997
991
988
986
988
989
989
988
990
992
990
987
985
982
979
978
975
975
971
970
968
969
969
967
964
963
962
965
966
965
964
963
964
966
970
967
965
962
962
965
968
965
964
959
952
942
932
930
938
949
970
1003
1060
1131
1203
1270
1333
1381
1405
1403
1362
1275
1169
1067
993
955
942
939
948
969
986
986
981
973
970
972
975
972
969
964
964
963
962
962
960
956
955
954
956
956
956
954
954
956
958
958
956
955
955
958
960
958
955
956
957
960
960
959
962
958
959
963
964
963
963
962
964
967
969
969
969
970
974
976
977
983
984
985
986
991
996
998
1000
1002
1004
1008
1013
1018
1021
1022
1026
1030
1038
1040
1040
1041
1043
1050
1054
1054
1057
1058
1059
1063
1066
1069
1067
1063
1062
1061
1061
1058
1056
1050
1045
1043
1042
1035
1030
1025
1019
1012
1012
1006
1004
1001
999
995
993
993
990
987
983
987
988
989
989
988
985
986
988
987
987
985
983
986
989
988
988
985
984
986
989
989
989
988
988
990
990
992
992
990
989
992
992
993
991
992
991
993
995
992
992
989
989
989
991
992
988
988
990
989
990
991
988
985
985
987
987
986
985
984
982
982
984
983
983
981
980
978
982
980
978
975
975
976
978
980
978
975
973
975
974
975
973
973
971
972
973
972
969
971
970
973
973
972
972
970
969
971
973
973
973
972
975
978
985
987
986
986
982
987
992
993
994
995
990
990
992
992
993
993
989
989
989
986
982
982
979
985
989
989
985
980
975
974
975
972
972
966
965
964
967
963
960
958
957
957
960
960
959
958
957
957
959
958
959
957
958
960
962
961
959
959
954
950
945
931
921
923
932
949
972
1011
1073
1148
1228
1301
1363
1402
1415
1396
1329
1227
1115
1018
958
931
932
944
963
980
985
982
973
970
971
970
968
966
960
961
958
954
953
951
951
951
952
953
951
950
948
950
953
951
952
950
948
948
952
951
951
948
950
951
954
956
959
958
955
955
956
958
959
961
963
963
967
967
969
968
970
973
977
978
982
981
984
990
994
998
1002
1004
1007
1009
1016
1021
1024
1024
1028
1034
1039
1042
1042
1046
1043
1049
1053
1054
1059
1057
1058
1060
1064
1065
1062
1060
1059
1060
1061
1058
1054
1047
1042
1041
1034
1033
1023
1022
1015
1015
1011
1007
1002
999
995
992
994
990
986
988
983
983
984
983
982
980
978
982
985
985
983
980
978
981
981
981
983
981
980
982
985
986
983
982
983
984
987
986
988
985
986
988
991
991
989
988
986
989
992
993
990
989
986
988
989
991
989
990
985
987
985
988
986
983
984
982
987
986
984
982
981
980
981
982
980
978
977
980
980
979
976
974
972
975
974
975
971
971
968
971
971
972
969
969
968
970
972
971
969
966
965
966
969
972
967
967
966
968
970
970
969
965
966
971
971
970
971
968
970
976
981
984
983
979
983
983
985
988
987
988
985
987
988
992
992
988
988
986
986
985
981
977
975
979
985
986
981
977
973
973
973
969
968
962
961
960
964
961
957
954
953
954
957
957
953
952
950
953
953
952
953
952
951
954
957
955
955
953
951
953
952
953
945
927
917
912
920
934
949
982
1042
1124
1207
1284
1351
1393
1410
1403
1356
1264
1143
1032
959
930
929
935
948
965
975
976
969
967
966
961
958
957
955
952
950
948
946
949
950
948
944
943
939
942
945
945
943
942
942
943
945
945
945
942
942
947
950
949
949
947
948
948
951
954
953
951
953
956
960
959
959
958
962
966
971
973
973
973
976
980
985
989
995
996
1000
1005
1007
1013
1017
1018
1023
1027
1033
1034
1039
1040
1041
1047
1050
1053
1055
1055
1056
1059
1064
1062
1060
1058
1056
1056
1057
1053
1047
1042
1035
1031
1030
1025
1018
1014
1010
1004
1003
1001
996
990
989
989
988
987
984
980
980
978
978
979
977
976
974
978
980
978
976
977
975
979
981
979
982
976
977
978
982
984
984
984
983
985
987
985
983
984
983
987
986
987
983
983
984
985
987
986
984
983
983
985
985
985
981
981
981
982
983
983
979
979
978
979
978
978
974
976
974
977
974
976
972
970
968
971
972
971
970
969
967
966
968
967
967
965
965
968
968
968
965
963
959
964
964
964
962
963
962
962
964
960
960
958
960
961
962
964
963
962
962
963
966
967
971
974
976
977
979
977
977
976
977
979
984
985
982
983
984
986
985
983
981
975
973
973
974
973
975
975
973
973
973
968
967
962
962
957
957
957
957
954
952
951
952
952
949
947
946
949
951
949
951
949
948
948
951
952
950
951
948
950
952
949
942
927
914
912
921
935
953
990
1053
1128
1204
1273
1338
1384
1401
1390
1333
1222
1094
990
933
918
921
932
955
972
974
969
962
961
956
953
952
951
949
948
946
943
940
942
943
942
940
939
939
941
941
944
940
940
939
941
944
945
944
946
942
945
944
945
946
945
946
951
951
953
951
951
953
954
959
962
961
961
963
965
967
970
975
972
977
982
987
990
993
997
1001
1007
1012
1016
1018
1020
1022
1026
1031
1038
1039
1042
1043
1046
1046
1048
1047
1051
1051
1054
1055
1057
1055
1050
1048
1044
1044
1042
1036
1029
1023
1023
1016
1013
1006
1000
995
993
994
990
987
984
982
981
981
981
981
978
977
977
979
979
978
977
974
978
979
981
978
976
977
979
981
982
981
979
981
981
986
985
985
984
986
986
988
987
985
983
984
987
986
988
988
986
985
985
983
984
985
982
980
983
984
985
983
982
979
978
980
979
977
975
972
974
975
975
973
971
970
972
974
973
969
967
964
966
967
968
966
965
966
968
966
965
963
961
961
963
965
966
964
962
963
962
963
963
961
960
961
962
963
965
965
962
962
965
969
972
975
976
977
977
979
979
980
979
981
985
987
987
985
984
983
986
988
989
984
980
978
976
975
975
976
975
979
977
976
974
970
967
964
962
963
962
960
956
955
955
956
955
952
953
952
953
955
955
953
952
949
953
954
954
952
953
954
954
952
953
943
931
919
920
928
943
962
993
1051
1132
1211
1285
1349
1388
1393
1359
1278
1162
1052
971
930
922
932
953
974
978
971
965
963
962
960
957
955
954
953
951
948
946
942
944
948
950
948
944
946
948
948
948
946
945
946
947
950
948
946
945
945
948
949
952
953
952
949
953
955
955
957
955
955
961
961
966
965
963
965
967
972
974
975
976
978
983
986
991
993
994
997
1002
1008
1012
1014
1016
1018
1024
1027
1029
1031
1033
1036
1040
1045
1049
1048
1048
1048
1053
1057
1058
1058
1057
1058
1059
1057
1056
1052
1049
1047
1045
1043
1039
1035
1029
1023
1019
1020
1015
1009
1005
1004
999
1001
997
994
987
986
986
990
987
985
984
979
981
982
981
981
979
979
980
981
981
980
979
977
980
980
983
979
980
979
982
984
986
984
982
982
983
988
987
986
986
984
986
990
990
989
987
988
990
991
991
990
989
988
989
989
988
991
986
989
989
988
988
988
984
983
986
986
984
984
981
981
982
982
981
979
975
976
978
980
979
975
977
974
976
979
974
974
974
972
973
975
973
970
971
970
971
973
971
970
967
967
967
970
968
969
967
966
969
971
969
968
965
964
966
971
971
971
971
975
980
984
984
983
982
981
984
987
991
990
990
990
989
994
994
990
987
988
986
988
983
980
980
979
981
984
985
983
978
976
974
972
971
968
962
960
963
963
962
958
955
952
953
958
956
952
951
952
955
957
955
953
953
951
957
958
956
954
953
948
939
925
916
918
930
945
976
1030
1105
1185
1259
1330
1385
1416
1416
1383
1302
1186
1070
983
937
922
930
941
965
980
980
972
964
958
962
959
959
954
951
947
949
948
946
943
941
942
941
946
945
946
942
943
945
944
944
944
942
941
944
945
945
946
947
944
946
948
949
948
950
948
951
954
953
953
953
953
955
959
960
963
964
964
968
970
972
974
978
978
985
988
992
992
994
998
1004
1009
1013
1016
1019
1021
1026
1031
1033
1034
1034
1037
1039
1046
1046
1047
1048
1050
1052
1056
1059
1058
1056
1055
1057
1056
1055
1052
1047
1045
1044
1043
1039
1031
1026
1021
1019
1014
1011
1004
999
997
995
994
992
989
984
981
978
982
980
978
975
975
977
977
978
974
974
974
974
977
977
976
976
974
976
976
977
977
975
975
978
980
982
981
980
978
980
982
981
981
981
980
981
985
985
984
982
980
981
982
986
985
985
982
983
983
985
982
983
980
982
983
983
983
981
981
982
982
981
980
978
978
979
979
978
978
977
974
976
976
975
975
972
972
974
975
972
969
967
968
971
971
972
967
966
964
968
967
967
964
963
963
965
965
966
966
961
962
966
964
965
964
961
960
964
964
964
958
960
962
966
965
968
969
969
971
975
976
980
977
977
978
980
983
986
984
983
982
984
988
988
986
982
979
982
979
975
972
970
974
976
979
978
972
967
965
962
963
960
958
953
953
954
956
954
951
949
948
951
951
949
950
949
948
948
949
948
948
947
948
952
951
952
948
944
938
929
919
908
912
921
937
962
1007
1071
1144
1216
1285
1349
1390
1403
1383
1316
1209
1093
999
944
924
922
928
941
962
974
969
960
954
952
956
956
953
949
948
947
942
944
943
942
939
941
942
938
938
936
936
937
937
938
939
939
938
937
938
940
942
938
939
941
945
944
945
943
942
945
944
946
944
946
946
948
950
952
953
954
954
958
961
962
960
964
964
967
971
974
975
976
981
984
988
992
995
995
999
1003
1007
1011
1012
1015
1019
1026
1028
1031
1031
1034
1035
1040
1042
1045
1044
1046
1046
1047
1051
1053
1051
1047
1046
1047
1047
1045
1041
1037
1033
1032
1029
1023
1019
1012
1008
1007
1006
999
991
988
984
986
986
983
978
975
974
975
976
976
973
970
970
968
971
971
970
969
969
973
972
972
972
970
969
971
975
974
972
971
969
974
974
976
977
975
975
976
979
978
977
976
976
977
979
979
980
975
977
976
978
980
979
978
976
977
979
981
979
976
975
977
976
976
976
974
974
976
976
975
972
973
970
971
973
973
971
968
967
968
969
967
966
964
962
963
964
965
963
962
958
963
961
961
959
958
958
961
962
961
961
960
959
958
960
960
959
957
957
958
959
956
958
954
955
957
958
958
958
956
957
960
962
963
964
968
969
974
975
976
977
974
974
978
982
982
982
981
982
983
984
983
980
977
974
973
971
970
970
971
972
972
973
969
965
962
960
960
958
957
952
952
948
949
950
948
948
946
945
946
946
946
945
947
944
946
950
948
949
945
945
947
947
947
940
929
914
911
919
931
946
972
1021
1090
1164
1235
1298
1356
1388
1394
1363
1284
1172
1064
984
934
922
920
930
950
966
971
966
961
955
951
952
952
950
946
945
942
941
942
941
941
940
937
936
939
942
942
936
938
936
940
938
941
939
940
937
935
942
942
940
938
937
942
943
943
943
945
948
948
949
948
949
950
948
951
957
958
959
957
961
964
966
971
974
975
976
981
987
990
991
992
994
999
1004
1007
1008
1008
1015
1017
1022
1026
1027
1027
1031
1036
1041
1042
1041
1040
1039
1043
1046
1048
1047
1044
1041
1038
1040
1037
1034
1029
1025
1023
1021
1018
1012
1005
1001
1000
998
994
990
985
979
981
978
980
975
972
971
973
974
972
974
971
967
970
971
971
971
970
969
972
973
974
974
971
967
969
973
971
973
971
971
975
973
977
973
973
972
976
978
979
978
977
975
974
978
976
977
975
975
976
977
978
975
973
973
975
977
979
977
976
973
973
974
974
971
972
969
968
971
970
969
963
962
966
967
967
966
965
960
960
964
962
961
959
959
959
961
962
960
956
955
958
961
959
957
957
956
958
958
957
958
955
954
955
958
960
957
957
958
962
968
971
971
971
972
974
975
975
975
975
978
980
978
980
984
979
978
977
973
973
971
969
967
972
973
973
971
965
964
964
961
960
955
953
950
951
950
949
949
947
944
948
946
947
944
944
943
944
946
947
946
945
943
944
946
947
944
942
941
939
929
915
906
912
923
946
980
1041
1119
1197
1274
1340
1386
1395
1363
1279
1155
1039
964
924
913
920
936
958
971
969
960
951
949
950
952
948
946
942
940
939
938
938
935
933
934
937
937
936
933
931
932
932
935
936
935
934
933
934
938
938
937
936
937
937
942
942
943
943
943
942
947
949
949
949
950
953
958
960
961
961
962
968
973
974
977
975
979
987
992
997
1000
1002
1004
1008
1015
1018
1022
1022
1026
1030
1035
1035
1036
1038
1037
1042
1045
1046
1043
1043
1042
1042
1042
1041
1036
1031
1027
1025
1024
1018
1011
1005
1000
995
994
992
985
981
978
976
973
973
971
965
962
966
967
965
963
963
960
963
964
961
961
961
959
962
965
965
963
962
963
965
965
967
966
962
963
966
968
968
965
966
968
972
972
974
970
969
967
971
973
972
971
969
969
969
972
970
968
967
966
969
969
970
969
967
964
966
967
967
966
966
963
964
965
963
959
960
959
962
962
959
959
957
956
955
955
955
956
954
954
955
954
953
953
949
952
953
955
953
953
950
948
949
951
951
950
949
949
950
952
952
951
948
950
955
961
963
965
965
963
963
966
969
968
971
970
975
974
975
972
974
972
975
975
971
969
963
961
962
965
967
966
964
963
961
960
957
951
950
947
946
948
946
943
940
939
939
942
940
939
935
936
937
941
940
941
937
937
939
940
940
940
939
940
938
937
929
917
902
898
908
925
945
977
1038
1118
1202
1280
1348
1393
1404
1383
1321
1221
1107
1006
940
914
912
922
936
956
965
963
958
952
951
950
946
943
944
943
939
936
933
933
932
933
933
935
932
928
931
932
933
932
928
930
931
936
934
934
932
931
934
935
935
935
935
935
940
941
942
940
939
939
943
947
948
949
948
948
951
955
956
955
957
960
964
969
972
973
975
978
983
989
993
997
997
1001
1007
1012
1015
1016
1016
1019
1025
1031
1034
1032
1036
1036
1041
1042
1046
1045
1044
1046
1047
1048
1048
1045
1042
1038
1038
1040
1037
1031
1027
1020
1020
1015
1010
1003
996
990
989
990
985
981
975
973
972
971
972
969
964
963
966
967
966
961
961
959
963
966
966
963
962
963
963
966
963
965
964
963
968
967
968
967
966
967
967
969
971
971
971
966
970
970
972
970
970
970
972
974
974
971
970
970
969
971
971
971
969
969
969
971
970
968
967
965
965
968
967
965
963
962
963
964
963
961
957
955
958
961
961
957
954
952
953
956
959
958
954
953
953
955
954
950
950
951
953
954
953
952
950
950
951
952
953
951
949
950
951
952
950
950
949
949
949
954
949
951
953
954
959
965
967
967
961
963
966
968
969
971
969
969
971
972
974
974
972
971
968
968
966
962
960
960
966
969
966
962
957
955
956
954
954
950
946
942
941
943
941
938
937
936
938
940
941
940
939
936
940
942
941
940
937
939
939
940
939
938
925
909
900
903
914
932
960
1017
1098
1179
1260
1328
1373
1393
1378
1312
1196
1068
969
923
913
918
929
945
962
964
957
953
948
944
946
944
942
938
938
933
933
936
936
937
934
932
927
929
932
933
931
932
932
931
932
934
934
934
934
935
934
936
936
937
932
932
937
941
940
941
940
940
943
946
944
946
944
949
952
955
956
957
959
959
965
968
972
971
974
974
982
986
990
990
994
996
1002
1006
1011
1011
1013
1015
1022
1024
1024
1026
1029
1029
1035
1037
1037
1038
1041
1039
1041
1044
1044
1040
1037
1034
1035
1037
1033
1030
1022
1020
1016
1015
1009
1003
999
993
992
989
987
983
979
979
978
979
974
971
968
966
967
970
968
969
967
967
967
969
968
966
966
965
968
971
970
966
968
968
971
974
973
971
971
971
971
972
972
972
973
970
973
975
975
977
972
972
973
974
974
976
973
975
975
974
974
970
970
971
971
974
971
971
969
965
968
970
968
964
965
962
965
965
963
963
962
961
962
962
960
958
955
955
954
959
958
958
955
954
956
955
955
955
952
954
953
955
954
956
953
951
951
955
955
955
955
952
953
956
954
953
955
959
963
968
969
969
969
968
972
974
976
975
975
975
974
977
978
977
977
976
976
974
968
966
964
964
968
971
973
967
963
959
958
959
956
952
952
950
950
949
946
945
943
943
944
947
947
945
943
941
944
946
945
945
943
941
944
945
945
941
930
917
911
917
928
946
978
1035
1114
1194
1264
1327
1370
1387
1369
1309
1206
1096
1005
948
921
923
933
954
968
973
965
959
953
952
951
951
950
948
945
942
940
937
939
939
940
940
938
935
938
940
938
936
935
938
938
941
940
938
935
937
939
942
942
941
941
942
944
946
946
946
943
941
947
949
949
952
951
950
954
960
959
959
959
960
966
969
971
974
973
975
980
985
987
990
992
996
1001
1007
1010
1012
1013
1013
1021
1025
1029
1027
1030
1029
1034
1037
1040
1041
1043
1042
1044
1048
1047
1048
1045
1042
1044
1043
1043
1037
1034
1030
1028
1026
1021
1015
1007
1005
1003
1001
997
992
987
983
983
983
981
978
976
975
976
976
976
975
971
970
972
977
975
973
973
971
973
977
975
975
974
974
974
978
977
976
975
975
978
981
981
981
981
979
979
983
980
982
981
982
982
983
983
982
981
981
980
979
980
981
977
979
978
979
980
977
976
977
973
976
977
975
971
971
971
972
970
971
967
967
968
968
966
964
963
962
965
967
965
961
962
960
961
962
963
960
960
956
960
959
959
958
958
958
958
962
959
957
957
958
959
963
962
964
961
965
970
973
976
973
976
973
976
978
981
981
983
983
981
983
985
986
984
983
982
982
979
976
971
970
972
976
978
977
973
970
966
966
962
963
958
957
957
957
959
956
951
947
949
948
951
948
946
947
949
950
950
948
945
946
947
947
949
948
949
946
948
944
937
922
910
903
911
924
939
959
994
1056
1135
1210
1277
1339
1386
1406
1405
1375
1300
1191
1082
996
945
928
926
931
946
963
976
976
969
962
956
953
954
958
955
952
948
943
944
943
943
941
939
939
940
940
941
940
937
936
937
941
938
938
937
936
937
938
938
936
935
936
940
942
944
944
943
944
947
946
950
948
948
950
950
954
955
955
955
956
958
960
963
968
966
968
973
975
978
980
979
986
990
995
999
999
1002
1004
1011
1017
1018
1021
1025
1026
1029
1035
1036
1040
1039
1039
1043
1046
1047
1049
1051
1050
1053
1054
1052
1051
1048
1046
1046
1045
1040
1037
1031
1025
1021
1019
1014
1010
1004
1000
997
993
990
985
982
980
980
979
976
974
973
972
972
971
971
969
970
969
970
971
972
972
969
970
971
975
975
975
972
971
975
976
974
975
976
976
977
979
982
980
979
976
979
980
983
979
978
976
978
979
981
978
979
978
979
980
980
979
978
975
976
977
978
978
974
973
975
977
976
975
972
970
972
974
973
972
970
969
967
969
969
966
967
964
967
967
966
965
962
960
962
963
962
962
960
959
961
962
961
958
958
958
959
963
961
960
956
957
958
961
960
960
960
959
962
965
963
965
967
971
975
977
978
975
976
978
977
983
984
981
981
979
981
984
987
985
980
979
975
975
972
970
969
971
976
978
976
968
967
965
964
964
964
960
956
955
955
954
952
949
947
947
951
951
950
948
946
947
948
950
949
949
948
946
947
949
949
947
947
944
945
941
934
918
907
906
918
931
946
977
1026
1095
1171
1242
1311
1364
1396
1400
1375
1311
1211
1097
1003
945
924
922
928
938
956
968
968
965
959
957
954
953
952
952
951
945
941
938
941
943
945
941
938
937
935
939
938
938
935
937
936
935
939
936
936
936
936
940
940
938
937
937
940
943
943
943
940
940
942
944
946
946
945
948
952
952
952
952
955
956
959
963
964
965
966
967
972
976
979
980
982
983
990
993
995
996
999
1003
1011
1015
1019
1019
1021
1023
1027
1032
1032
1037
1036
1039
1040
1046
1047
1045
1047
1047
1047
1048
1046
1046
1042
1041
1039
1038
1031
1027
1021
1019
1014
1013
1006
1001
994
989
987
987
982
981
978
974
977
975
974
969
967
966
967
969
969
967
967
966
969
969
966
967
967
968
970
972
971
970
967
968
971
974
974
971
968
969
972
977
974
975
974
974
977
979
979
978
975
975
974
976
975
975
975
973
976
977
979
975
975
970
972
974
975
973
969
971
970
973
971
969
966
967
968
967
969
967
966
962
964
966
965
963
961
958
960
962
962
961
958
957
957
961
961
958
957
955
954
955
954
953
953
953
954
957
954
954
953
953
953
955
954
954
954
950
951
953
955
955
954
957
961
967
968
969
967
965
970
972
974
975
974
973
974
978
977
978
976
973
972
971
971
966
963
963
964
969
969
968
963
961
961
958
959
956
954
951
950
948
948
948
943
942
944
945
943
944
941
940
942
943
942
941
939
940
941
944
944
942
940
939
940
942
940
933
924
910
906
908
917
933
951
984
1043
1114
1185
1252
1307
1352
1374
1366
1321
1233
1127
1030
964
928
914
918
926
944
962
968
963
954
950
946
947
949
947
941
936
935
937
939
939
935
933
933
933
936
935
935
932
933
937
938
937
935
933
933
935
936
938
937
934
933
935
938
940
937
939
940
942
945
943
943
942
943
947
949
952
952
951
955
957
960
963
964
965
965
973
976
978
981
983
984
993
998
1001
1003
1004
1010
1015
1017
1019
1022
1023
1023
1028
1032
1032
1033
1031
1033
1032
1038
1039
1037
1034
1033
1033
1032
1027
1021
1016
1013
1012
1009
1004
1000
990
986
983
986
982
979
977
972
970
971
971
968
966
966
965
967
968
967
965
963
965
968
966
967
964
961
965
966
966
966
963
964
964
970
970
968
968
969
971
973
971
970
970
967
971
973
973
973
970
967
969
972
973
970
968
966
969
971
971
970
969
967
969
970
970
964
963
963
964
965
964
962
960
958
959
962
960
958
959
958
960
959
959
958
954
955
956
958
954
956
951
950
952
954
953
950
949
953
953
954
952
952
950
950
952
952
952
952
949
950
953
956
958
960
962
964
968
967
969
968
968
967
973
976
975
972
974
972
974
976
976
972
969
966
963
963
965
965
965
967
967
963
962
957
956
952
952
953
951
948
946
944
946
947
944
942
941
942
941
942
942
942
939
938
941
942
942
943
939
940
942
943
941
933
924
912
907
916
928
946
977
1032
1103
1174
1244
1309
1354
1378
1379
1344
1266
1160
1057
977
931
916
911
925
944
960
965
963
957
950
946
946
948
946
942
938
934
934
934
934
935
935
934
933
933
937
936
936
933
934
936
935
937
936
937
935
934
939
939
939
938
938
941
943
944
945
943
941
945
949
950
947
947
947
954
958
958
959
960
962
967
973
976
977
981
982
987
993
994
998
999
1003
1010
1015
1016
1018
1019
1023
1027
1033
1035
1035
1035
1036
1039
1041
1044
1043
1042
1038
1038
1038
1038
1032
1030
1026
1021
1017
1013
1007
1002
995
994
991
987
982
977
975
972
972
973
970
965
965
967
967
965
965
965
962
964
966
967
966
963
962
966
967
970
968
968
967
971
974
971
972
970
969
973
974
973
970
971
973
972
975
974
973
974
973
973
975
976
973
973
971
974
976
976
974
970
968
967
968
970
967
967
965
967
968
965
963
961
962
960
963
964
963
961
956
958
959
956
958
959
956
957
956
956
957
953
951
954
955
955
956
954
952
953
956
955
955
952
951
954
957
957
956
957
959
962
970
970
968
967
967
969
972
974
974
973
972
975
977
976
976
972
971
969
969
967
963
965
966
970
969
965
961
958
957
956
956
953
950
945
944
945
945
944
942
940
940
939
942
941
939
940
941
941
942
943
940
940
939
940
940
939
930
914
901
903
913
926
947
985
1051
1134
1215
1287
1346
1378
1379
1335
1250
1130
1018
948
915
915
923
937
957
967
965
958
954
951
949
947
943
943
939
938
938
935
932
933
934
931
931
930
926
932
933
935
934
930
930
929
931
934
933
933
932
933
934
935
934
932
934
938
939
942
942
940
939
942
944
946
950
949
948
951
955
956
957
959
961
966
972
972
976
979
979
984
990
995
998
1000
1001
1006
1013
1014
1016
1015
1016
1023
1028
1031
1030
1031
1032
1036
1038
1039
1038
1038
1037
1039
1040
1038
1036
1031
1024
1021
1024
1019
1013
1006
1002
998
997
993
985
981
976
977
976
973
970
965
963
963
964
964
962
960
959
959
962
963
960
955
957
959
963
962
960
960
959
961
961
965
964
962
964
966
968
968
966
962
962
967
968
968
970
968
968
969
971
969
970
967
969
968
970
969
966
965
966
966
968
965
967
964
962
965
964
964
962
961
961
961
964
960
960
958
957
959
959
960
959
955
954
955
957
955
953
950
951
952
954
955
952
951
949
950
949
951
949
947
947
947
949
949
946
947
945
948
948
949
948
946
946
950
951
951
949
952
954
961
963
964
966
962
966
968
967
969
971
972
970
970
972
974
972
968
966
969
969
966
961
960
958
960
965
965
964
961
959
955
957
954
949
948
944
945
947
945
944
941
939
942
939
940
937
938
936
941
941
938
941
939
936
940
940
942
939
937
936
935
932
920
905
901
907
924
945
983
1041
1114
1186
1260
1320
1360
1371
1353
1289
1191
1084
994
934
914
911
925
941
958
962
958
950
947
946
945
944
942
936
934
937
934
933
931
929
930
933
933
930
929
930
929
932
930
926
929
928
932
932
932
931
930
932
930
935
934
934
935
933
935
939
940
940
939
939
944
946
945
948
947
951
954
958
962
963
965
967
967
975
978
982
983
984
991
996
1001
1003
1005
1004
1007
1013
1018
1021
1023
1026
1028
1033
1034
1033
1033
1035
1038
1039
1036
1035
1034
1030
1028
1030
1029
1024
1017
1011
1008
1007
1001
995
990
986
988
986
983
980
974
971
970
969
969
966
964
965
966
966
967
965
966
966
971
968
968
967
963
963
966
968
966
969
967
966
969
969
971
970
967
969
970
975
975
973
970
967
970
971
973
972
972
973
970
970
968
970
969
969
971
973
971
968
968
966
968
971
972
969
966
964
963
963
961
963
960
960
962
965
963
963
959
958
958
960
956
957
956
955
957
957
958
956
955
954
956
954
955
955
952
950
954
953
952
954
953
952
952
956
953
952
951
950
954
957
960
961
963
964
969
969
968
968
969
967
973
980
979
978
975
973
974
977
977
974
971
969
969
970
967
968
966
966
969
972
968
966
962
962
958
958
955
952
951
949
951
950
949
947
945
946
946
949
950
948
945
944
945
946
946
947
945
944
947
949
950
949
944
939
930
920
916
923
931
946
970
1014
1074
1138
1202
1264
1319
1354
1371
1356
1304
1216
1116
1033
968
934
922
925
945
967
974
968
959
955
954
954
953
953
947
943
942
942
941
938
939
937
939
940
941
939
937
937
938
939
937
938
936
938
941
941
940
937
939
936
939
942
942
942
940
942
944
945
946
947
947
947
950
956
955
955
956
957
962
967
969
969
969
968
973
979
981
985
986
988
994
1000
1001
1005
1002
1007
1013
1020
1023
1024
1025
1026
1031
1031
1037
1037
1039
1042
1044
1046
1045
1043
1042
1038
1039
1038
1035
1029
1027
1020
1017
1013
1007
1004
998
995
992
991
987
983
978
978
978
978
978
976
973
973
971
973
972
971
971
967
972
973
974
974
972
973
974
976
977
975
974
974
973
979
979
979
979
976
980
981
982
981
979
977
979
982
983
981
978
980
982
980
980
980
978
978
979
982
981
982
979
974
977
977
977
978
973
974
974
977
975
972
971
970
971
972
971
970
967
966
967
970
968
968
965
964
965
965
965
964
963
959
962
965
963
963
962
960
962
963
962
959
959
959
960
964
963
961
959
960
960
963
965
967
969
969
972
977
978
976
974
974
978
983
983
982
980
980
983
984
984
982
978
977
977
977
972
971
972
971
971
975
973
971
968
965
961
962
960
957
953
952
951
952
952
950
948
946
945
947
948
947
947
945
947
949
948
946
945
946
946
944
949
945
942
939
935
924
911
907
912
923
942
976
1029
1100
1174
1250
1321
1376
1398
1392
1347
1256
1141
1033
955
918
914
921
937
958
972
974
966
958
955
955
951
950
949
945
943
942
941
938
937
936
936
937
937
938
937
934
937
935
937
936
934
935
937
937
938
939
935
936
938
940
940
942
940
938
941
945
946
944
943
945
949
952
953
952
953
954
958
960
964
964
966
969
973
977
978
981
983
983
991
998
1001
1002
1004
1009
1014
1017
1021
1020
1022
1025
1030
1034
1036
1037
1037
1039
1042
1044
1047
1046
1045
1046
1047
1045
1046
1042
1039
1035
1033
1031
1027
1022
1015
1012
1007
1006
999
993
989
988
986
983
981
977
976
971
970
973
973
969
968
965
965
968
968
966
965
965
968
971
968
969
968
968
969
972
970
971
971
971
973
974
973
974
973
972
974
976
978
976
976
974
977
979
976
976
975
974
978
979
981
978
975
973
975
979
979
976
973
973
974
976
974
972
971
971
972
975
973
969
971
968
970
971
972
969
966
965
966
968
969
966
964
961
962
965
963
962
960
959
961
963
963
961
957
957
958
961
962
963
961
959
960
960
961
959
959
954
956
961
959
960
959
958
956
960
958
963
964
967
971
974
976
974
973
971
975
980
982
983
980
979
983
986
985
986
982
981
978
980
977
972
971
970
975
977
977
976
970
969
967
965
962
961
959
954
955
957
956
953
952
948
948
950
950
948
948
948
949
952
950
948
948
947
949
950
947
947
944
946
943
935
924
912
908
917
932
953
989
1049
1123
1203
1284
1355
1395
1399
1369
1289
1172
1054
970
925
919
925
942
960
974
974
964
957
956
956
955
954
950
945
944
945
944
941
938
935
940
941
939
940
936
935
937
936
938
938
938
936
939
940
941
941
939
940
944
944
946
944
944
942
944
949
948
950
950
948
952
957
957
959
957
959
965
970
971
974
975
975
980
985
987
989
993
996
1004
1009
1014
1013
1012
1015
1021
1026
1029
1031
1032
1032
1036
1039
1042
1042
1043
1044
1049
1049
1048
1046
1044
1041
1042
1041
1040
1035
1029
1025
1023
1022
1016
1011
1005
1000
997
994
990
984
980
979
977
978
977
975
975
971
973
972
972
970
970
968
968
968
969
969
966
964
968
970
970
969
968
965
969
970
972
971
970
971
972
971
972
972
971
971
973
977
974
973
973
971
974
975
975
974
974
972
973
976
974
973
972
971
972
972
973
972
972
969
972
970
970
969
970
968
971
971
971
967
967
964
970
967
965
966
962
963
964
964
964
962
962
958
960
962
961
961
956
952
958
960
960
956
954
953
956
956
959
959
955
954
957
956
956
955
952
950
953
956
956
954
950
953
953
957
954
955
955
956
958
963
965
967
966
967
970
971
972
971
972
973
975
977
975
974
976
976
978
979
976
972
968
964
966
965
969
970
971
970
970
968
965
961
957
957
955
956
953
952
948
945
944
947
945
945
942
941
942
944
944
943
943
941
944
946
946
944
944
943
943
947
945
940
929
917
909
912
922
935
953
990
1047
1114
1179
1244
1304
1350
1377
1373
1323
1230
1116
1019
957
929
920
924
934
951
967
966
963
956
954
951
951
954
949
946
943
939
941
942
943
940
939
938
939
940
940
939
937
937
941
940
939
938
938
936
938
941
940
942
940
940
942
945
945
945
943
942
944
947
948
950
949
950
952
952
955
956
958
960
962
965
967
966
969
971
973
980
983
984
983
988
992
997
1000
1004
1003
1006
1013
1016
1017
1018
1019
1020
1027
1027
1030
1032
1033
1037
1039
1043
1046
1044
1045
1043
1044
1046
1045
1041
1040
1039
1039
1037
1034
1029
1022
1019
1019
1016
1014
1008
1003
1000
997
996
991
988
985
982
981
981
979
979
976
974
975
978
976
975
973
972
973
975
973
971
972
969
975
977
976
978
978
974
976
977
978
976
977
975
979
981
982
981
980
979
979
980
982
983
979
978
981
984
982
982
980
979
981
982
984
982
981
979
982
984
982
982
982
980
979
981
979
979
976
974
972
976
975
973
972
972
973
973
970
968
968
970
968
971
971
969
967
964
964
967
966
965
966
965
965
966
963
962
962
959
962
962
963
960
961
960
961
962
962
962
961
960
961
964
963
961
961
961
965
968
973
974
977
977
977
980
978
977
982
983
985
986
982
982
985
984
983
984
980
977
971
972
974
977
978
977
975
971
971
969
967
964
960
959
957
960
957
956
953
951
951
955
953
951
948
947
951
953
953
951
950
949
953
953
954
950
949
945
941
930
920
920
926
940
966
1012
1077
1151
1223
1293
1351
1385
1385
1336
1239
1123
1022
954
924
921
933
955
974
982
975
965
960
960
959
959
958
953
948
950
950
948
950
946
945
944
947
948
948
946
945
945
946
947
945
947
946
946
947
949
946
949
949
948
949
953
953
953
954
953
955
956
957
957
959
958
963
967
966
967
968
968
972
977
980
980
984
985
989
992
991
999
1000
1002
1009
1014
1020
1021
1021
1024
1027
1031
1035
1038
1039
1040
1042
1046
1046
1050
1049
1049
1051
1054
1052
1051
1048
1046
1045
1044
1041
1039
1032
1028
1023
1020
1015
1011
1006
1000
998
996
993
990
986
983
982
979
980
977
976
973
977
975
973
973
973
973
975
975
977
977
973
972
973
975
979
976
973
973
976
979
979
978
977
977
980
981
982
982
980
980
982
982
983
982
980
982
984
985
982
982
982
979
980
983
982
981
977
976
978
978
979
976
975
974
978
976
976
972
971
970
970
972
972
971
970
968
969
970
968
967
966
963
967
968
966
965
964
962
965
967
966
967
965
962
963
964
965
964
963
963
963
966
964
964
964
964
970
972
975
977
978
976
978
979
978
977
980
981
984
983
984
986
984
985
984
983
982
977
976
971
973
977
977
975
972
968
969
969
968
964
957
956
959
958
958
953
951
952
952
954
951
951
950
949
952
955
954
952
951
948
951
953
951
951
946
935
921
914
914
923
938
966
1021
1097
1180
1257
1329
1381
1405
1390
1321
1211
1084
989
939
925
931
946
968
979
977
971
966
964
961
958
956
954
952
950
947
947
947
945
947
946
943
944
946
947
948
946
944
939
944
947
949
947
943
946
947
950
949
950
949
949
951
955
955
954
952
955
958
961
963
963
964
964
970
972
974
977
977
982
987
991
993
995
997
1001
1005
1010
1017
1019
1021
1023
1027
1031
1035
1038
1039
1041
1044
1047
1050
1050
1051
1051
1054
1056
1056
1054
1049
1045
1046
1043
1042
1036
1030
1025
1019
1018
1013
1006
1001
995
995
994
991
985
983
980
980
982
979
978
974
974
974
976
975
974
973
972
972
975
976
975
975
973
974
974
976
975
976
977
978
977
978
978
979
978
980
985
984
983
981
981
982
984
984
981
981
980
984
984
983
983
979
978
980
983
981
981
979
978
978
976
977
977
975
974
974
976
974
973
969
970
971
970
970
969
969
966
968
970
965
964
962
962
963
966
966
963
960
963
963
964
963
961
960
960
960
962
960
959
958
958
959
960
958
956
958
957
955
959
960
961
959
960
962
965
966
970
969
971
973
977
977
977
973
979
978
980
979
978
979
979
981
981
976
975
969
967
965
970
971
974
972
967
965
963
960
959
955
953
952
953
952
950
946
944
946
950
948
946
944
943
946
946
948
947
943
945
946
949
949
949
944
945
944
945
941
933
919
909
908
918
930
947
977
1035
1112
1186
1258
1322
1367
1386
1378
1326
1227
1107
1009
949
925
922
931
943
958
968
967
959
956
954
953
951
950
949
944
941
937
937
940
942
941
939
938
936
936
937
937
937
935
935
936
936
937
937
935
938
940
942
942
944
940
939
940
943
943
942
945
943
945
948
946
948
948
951
953
957
958
959
959
960
964
969
970
973
973
977
979
986
989
993
993
996
1003
1007
1013
1013
1013
1016
1021
1025
1027
1031
1030
1034
1037
1038
1042
1043
1042
1041
1043
1045
1048
1047
1044
1041
1039
1037
1034
1029
1026
1020
1019
1016
1011
1006
1001
995
994
992
988
987
983
977
979
978
975
974
970
968
970
972
970
970
968
965
967
967
968
965
967
966
968
971
971
968
967
971
968
973
973
971
970
970
972
973
973
974
972
973
972
974
975
977
975
975
975
977
976
973
971
974
976
976
977
976
976
974
975
974
971
972
971
968
973
971
973
970
968
967
969
971
969
967
967
964
965
966
964
964
963
963
963
964
960
961
958
953
958
962
961
960
959
957
959
959
957
956
956
955
957
957
953
957
956
954
956
956
956
955
954
952
956
957
958
957
957
957
960
963
967
971
967
968
970
973
973
975
974
972
975
976
976
974
972
969
970
968
966
966
965
967
968
969
967
961
958
954
957
956
952
953
946
945
946
948
946
947
942
941
944
947
946
945
944
944
944
944
946
943
942
940
946
948
946
941
929
916
910
916
928
948
978
1031
1106
1183
1252
1315
1361
1374
1356
1295
1197
1091
1005
948
921
919
930
953
965
970
962
958
953
952
949
948
948
947
945
943
939
937
938
937
938
938
935
935
936
937
939
935
935
934
934
937
937
938
937
935
939
938
940
941
941
939
943
944
944
944
943
943
947
948
951
954
954
955
955
956
960
961
963
962
968
973
976
975
977
980
986
991
995
994
999
1002
1008
1010
1013
1016
1016
1018
1022
1026
1030
1031
1030
1032
1038
1039
1038
1041
1042
1044
1044
1047
1044
1041
1039
1034
1035
1035
1033
1028
1025
1018
1016
1013
1007
1000
998
993
991
992
988
984
981
979
978
977
975
974
970
971
972
972
973
969
969
968
970
971
972
970
970
968
970
971
973
971
971
970
975
975
976
975
974
973
977
976
978
978
977
975
979
981
981
979
978
976
980
982
983
980
980
978
979
979
980
977
978
978
980
979
979
978
977
975
977
979
978
976
972
972
974
977
973
970
969
966
970
971
971
969
967
964
965
965
963
964
963
962
963
966
965
961
961
959
962
965
963
961
960
960
959
961
961
962
962
960
962
964
963
965
966
968
973
975
977
978
977
978
978
982
983
980
979
981
984
985
984
982
977
975
973
972
973
972
973
974
975
974
972
967
964
959
960
960
958
953
952
950
950
951
948
948
949
947
946
950
948
949
945
946
947
949
949
949
946
944
946
944
940
928
912
904
911
926
945
976
1032
1105
1186
1260
1328
1379
1400
1390
1339
1237
1116
1013
947
920
920
931
947
963
970
968
963
959
957
952
952
948
945
945
945
945
941
938
940
939
938
936
936
935
935
938
937
935
935
934
936
937
937
936
938
936
938
940
940
941
939
938
943
944
947
945
943
944
945
949
950
950
952
953
958
962
962
963
962
964
967
973
975
977
979
983
988
992
996
998
999
1000
1010
1013
1015
1017
1019
1020
1024
1027
1029
1032
1032
1036
1038
1041
1042
1040
1043
1040
1044
1047
1046
1046
1043
1038
1038
1037
1035
1030
1028
1023
1019
1017
1014
1009
1004
997
995
992
990
987
982
978
979
975
976
974
969
969
968
968
968
967
966
964
964
966
966
966
964
965
966
966
968
966
967
965
967
970
969
969
970
969
970
971
972
973
971
972
975
976
976
976
975
973
975
978
976
974
972
972
975
977
978
975
972
973
973
973
973
972
972
974
972
972
974
969
968
968
968
968
970
967
965
963
964
966
964
963
960
961
965
964
962
961
958
958
959
959
958
960
958
957
958
959
958
956
957
956
958
958
957
955
956
954
955
957
956
957
957
960
960
963
967
968
970
966
968
972
973
973
975
975
975
976
978
977
977
977
977
978
976
973
967
964
963
966
969
968
966
961
961
960
959
957
954
952
951
953
953
951
948
944
943
944
944
944
941
943
944
945
945
942
943
940
942
945
945
946
945
945
947
945
942
936
927
914
904
906
916
925
938
966
1019
1094
1171
1243
1309
1358
1387
1391
1359
1287
1183
1078
995
942
922
918
917
932
953
969
971
960
954
950
951
953
954
949
943
939
939
940
940
938
936
935
936
936
938
934
934
933
935
936
937
936
934
932
934
935
939
936
934
934
938
941
939
941
938
938
940
942
944
944
944
946
947
949
951
953
953
950
953
957
960
960
962
963
967
969
970
975
975
978
982
987
991
992
994
998
1005
1009
1012
1016
1020
1020
1022
1026
1029
1031
1032
1031
1037
1040
1041
1042
1042
1044
1045
1046
1045
1044
1040
1039
1039
1037
1035
1030
1026
1020
1018
1015
1010
1006
1000
996
994
991
988
983
980
978
978
976
976
973
971
969
971
972
972
971
970
967
969
971
967
967
967
967
968
969
972
972
969
968
968
973
973
972
971
971
972
975
974
975
973
972
974
975
977
977
975
975
975
979
977
976
975
975
978
979
979
977
973
973
977
976
977
976
973
974
973
976
972
971
970
969
972
972
970
969
967
964
964
965
968
966
963
964
967
965
964
962
962
962
964
964
963
963
963
960
960
959
962
961
963
959
961
963
963
960
959
957
960
961
964
964
965
967
972
975
975
975
974
974
976
980
980
981
981
977
978
982
984
986
983
981
980
978
974
971
971
968
972
974
978
974
971
964
964
964
964
961
958
954
956
955
955
952
950
945
947
953
951
949
950
947
950
952
952
950
948
950
951
954
954
950
948
945
944
941
933
920
915
919
927
941
967
1013
1078
1150
1223
1286
1340
1368
1371
1338
1261
1163
1067
993
947
926
925
935
953
968
970
963
962
957
954
954
954
948
950
950
947
945
940
939
941
942
943
941
939
938
941
943
940
940
938
938
941
940
941
937
939
937
939
939
940
939
939
938
942
944
943
944
943
944
946
949
949
951
949
948
953
954
955
956
957
958
961
966
969
970
971
972
980
984
987
988
990
994
998
1001
1004
1004
1007
1009
1015
1021
1024
1025
1023
1023
1030
1032
1033
1036
1037
1037
1042
1044
1043
1043
1042
1041
1041
1045
1041
1036
1031
1031
1028
1027
1022
1014
1008
1004
1003
1001
999
993
988
983
983
980
982
980
977
975
974
976
975
973
971
972
972
975
975
972
972
967
969
973
973
973
973
972
973
976
977
973
973
973
975
980
979
979
978
978
980
978
980
980
979
977
980
980
982
980
978
978
978
981
981
981
976
977
980
980
979
979
978
976
979
978
979
978
975
975
974
975
973
974
973
973
972
974
972
970
968
969
970
971
969
968
965
965
965
967
965
964
962
962
965
966
965
961
962
960
963
965
965
964
962
960
963
962
962
962
964
966
973
975
978
975
976
975
978
981
981
982
982
981
984
985
988
987
985
983
983
982
979
976
974
973
974
977
980
978
978
973
973
971
967
966
959
958
957
956
961
956
953
950
951
953
952
951
950
948
951
952
952
950
948
947
953
952
952
951
951
950
950
947
937
920
908
909
922
934
954
991
1050
1122
1202
1274
1339
1385
1406
1395
1349
1265
1150
1043
967
927
917
931
946
966
976
973
969
963
960
957
952
953
951
950
948
945
942
938
940
941
940
940
937
937
939
940
940
940
938
934
937
940
941
941
937
937
940
941
942
941
941
941
945
944
947
946
947
944
947
951
955
954
953
955
958
960
962
960
963
964
968
976
977
979
979
981
987
994
996
997
997
1001
1006
1012
1015
1018
1021
1020
1027
1031
1035
1037
1036
1037
1042
1043
1047
1045
1047
1049
1049
1052
1054
1050
1046
1043
1042
1042
1040
1034
1029
1023
1019
1019
1012
1007
1000
995
992
991
986
981
977
973
973
974
973
971
968
967
968
968
968
967
965
965
967
969
966
967
965
963
966
969
968
967
967
967
972
973
972
971
968
966
970
975
973
975
972
974
971
975
975
974
973
973
973
976
975
974
974
974
972
977
976
970
969
970
969
971
971
969
968
967
967
967
967
967
964
963
963
964
966
962
959
957
957
958
960
961
958
954
957
956
958
955
952
950
955
958
957
956
954
952
952
953
956
956
953
953
953
955
956
956
955
953
960
968
971
968
969
967
969
972
973
972
975
971
973
977
979
977
972
971
972
967
966
965
963
965
966
969
965
960
958
953
952
954
951
948
945
944
945
945
943
944
939
938
940
942
941
940
939
939
940
943
942
940
939
938
941
941
942
936
925
911
899
900
910
924
944
986
1058
1142
1222
1294
1356
1393
1401
1369
1290
1171
1052
965
922
913
918
928
946
961
967
961
956
949
943
943
946
943
943
938
935
935
935
935
932
932
927
930
930
931
933
930
930
928
928
933
930
930
929
930
931
930
934
932
932
934
936
939
939
939
938
937
939
942
945
945
945
945
950
952
952
954
955
956
961
964
970
970
972
975
979
985
987
991
994
998
1004
1005
1012
1017
1016
1018
1025
1030
1034
1033
1033
1035
1040
1045
1045
1045
1045
1042
1045
1047
1043
1041
1037
1032
1031
1030
1024
1017
1014
1010
1006
1002
997
990
984
981
979
974
972
971
966
964
963
964
965
962
962
960
960
961
962
960
960
960
962
965
962
963
963
961
962
965
965
966
964
965
966
968
968
970
970
969
970
970
970
971
967
966
972
972
973
970
968
967
967
970
969
968
965
967
967
968
963
964
963
960
963
963
963
964
961
958
959
960
958
958
957
954
955
958
956
953
953
952
953
956
953
952
949
949
949
949
952
953
950
948
949
950
950
948
947
948
949
949
950
950
947
946
947
951
955
957
960
961
963
965
966
965
964
967
970
973
972
967
970
970
971
974
972
964
961
957
957
960
964
961
962
959
956
955
952
949
946
943
944
946
943
943
938
935
937
938
935
937
933
933
934
935
937
937
935
935
934
937
937
937
934
925
918
906
897
900
909
924
954
1013
1088
1168
1245
1315
1369
1390
1375
1310
1201
1079
979
924
911
915
923
937
959
963
955
947
944
942
944
943
941
936
932
928
929
932
930
929
927
929
929
932
930
928
925
925
927
931
933
931
928
928
930
930
931
931
929
929
932
934
935
936
932
934
936
941
942
944
943
942
944
949
950
949
951
954
958
963
962
965
967
971
975
979
985
985
987
991
997
1001
1004
1008
1012
1013
1018
1022
1023
1027
1028
1028
1031
1036
1035
1038
1039
1041
1040
1041
1039
1037
1032
1033
1031
1030
1025
1020
1015
1008
1003
1002
996
990
985
983
982
978
976
972
967
966
968
967
965
966
964
961
961
960
960
962
962
964
963
966
966
964
961
962
963
965
967
966
964
962
962
967
968
967
968
968
969
972
973
971
968
965
966
970
972
970
969
966
968
970
970
967
964
965
965
970
970
967
964
966
964
966
966
964
962
963
962
965
964
960
958
958
961
960
960
958
957
954
955
953
955
954
952
953
955
957
956
953
947
949
951
952
954
953
952
949
948
952
947
946
945
946
950
951
951
952
951
953
954
958
964
964
966
963
965
967
968
967
969
969
972
970
971
971
972
972
972
973
970
968
964
961
961
963
964
965
963
964
964
958
957
952
950
949
949
948
947
944
943
941
940
943
942
944
940
939
938
939
939
939
938
936
938
939
941
939
938
938
939
939
937
931
919
908
905
912
922
935
961
1005
1066
1134
1201
1265
1319
1353
1368
1353
1296
1207
1108
1021
959
926
915
920
931
952
965
963
955
950
946
941
942
942
939
936
935
932
934
935
934
932
929
929
930
930
930
927
929
930
931
931
933
930
929
928
929
932
933
931
928
929
928
932
931
932
930
932
936
937
937
937
937
938
938
942
942
943
943
944
951
952
953
950
954
957
963
969
969
973
974
976
980
986
986
988
992
994
1001
1008
1009
1011
1011
1014
1018
1021
1024
1023
1023
1025
1028
1032
1033
1032
1032
1033
1032
1034
1031
1027
1023
1021
1019
1018
1013
1008
1003
997
994
992
988
982
978
973
976
972
973
967
965
963
962
965
965
962
962
961
963
964
962
960
959
959
961
963
960
962
960
960
960
964
963
964
963
963
964
966
962
963
963
962
968
969
969
969
966
968
967
969
969
968
969
966
968
972
971
968
966
964
967
969
969
968
969
967
966
967
970
966
962
964
965
966
965
963
960
958
960
961
962
960
960
958
959
957
958
955
953
951
953
956
956
956
953
950
952
955
953
952
951
953
953
954
955
951
951
950
952
954
955
957
959
960
963
968
970
969
968
969
972
975
976
975
975
974
975
979
981
980
977
977
974
972
968
967
967
968
973
973
972
968
966
959
957
957
956
954
952
952
949
948
947
944
944
942
945
948
948
946
946
945
946
947
947
945
944
946
948
946
949
947
944
939
930
920
912
913
924
939
960
1004
1068
1144
1213
1279
1341
1383
1399
1385
1332
1239
1131
1038
970
931
920
922
934
952
970
977
971
962
960
960
958
956
954
950
949
948
947
943
938
941
942
942
943
944
940
939
941
943
943
942
941
940
944
942
944
941
942
942
943
945
945
946
946
944
948
950
951
952
951
949
952
957
957
958
956
958
960
964
966
966
967
968
974
978
981
980
983
986
989
993
999
1003
1007
1009
1012
1016
1022
1024
1026
1028
1034
1038
1041
1046
1046
1046
1049
1051
1056
1058
1056
1059
1060
1063
1060
1059
1056
1052
1051
1053
1049
1047
1039
1036
1032
1027
1024
1018
1011
1007
1004
1001
1001
995
994
990
987
988
987
986
982
980
981
983
982
981
980
980
981
983
983
984
983
982
984
984
986
985
983
984
986
989
989
987
985
986
988
991
991
992
990
989
989
992
992
992
991
991
992
994
992
992
989
991
988
989
994
992
992
988
990
991
991
988
988
988
988
992
989
988
984
982
985
986
985
985
981
981
981
983
982
984
980
981
981
979
982
981
978
977
978
980
980
979
977
975
976
979
981
977
975
972
975
978
980
976
978
978
982
988
991
990
989
990
991
994
995
994
995
995
997
1000
1003
1002
1002
997
995
991
990
988
989
989
991
993
991
988
982
980
980
980
978
977
975
972
972
972
970
967
967
963
968
966
968
965
963
963
963
965
966
963
962
964
964
965
965
963
961
954
944
930
924
928
936
953
985
1034
1099
1170
1234
1298
1350
1390
1399
1385
1341
1251
1136
1037
970
942
935
940
952
971
987
987
983
976
976
975
973
970
965
961
961
960
958
958
958
955
956
955
955
954
951
951
953
956
956
953
951
950
950
956
954
956
954
954
958
960
960
958
959
955
961
961
962
961
963
962
964
968
970
969
967
968
973
977
979
980
980
980
986
992
994
998
999
1002
1008
1012
1014
1018
1021
1021
1026
1031
1037
1040
1040
1042
1047
1050
1054
1055
1053
1056
1060
1063
1063
1063
1059
1062
1066
1063
1060
1061
1057
1053
1053
1051
1047
1041
1036
1030
1028
1024
1019
1015
1008
1003
1001
999
997
994
991
988
989
990
987
986
983
980
983
987
987
984
980
982
985
984
986
984
982
982
985
987
987
986
985
984
986
988
991
988
988
987
989
990
991
989
990
989
989
992
994
992
991
986
990
992
991
990
990
988
991
991
991
991
988
986
989
991
991
989
987
984
985
990
985
985
982
981
980
983
982
979
980
978
977
977
979
978
976
975
977
978
977
975
972
971
973
974
972
972
971
971
971
974
971
971
971
971
971
971
974
970
967
968
969
972
971
971
973
974
978
981
983
982
982
980
983
987
988
990
988
988
989
989
988
989
991
989
989
988
988
984
981
976
976
979
982
982
982
980
980
977
976
972
969
966
967
965
964
963
962
959
959
958
957
955
955
955
957
958
955
955
953
952
955
954
956
958
956
956
956
957
956
952
949
936
927
919
915
923
931
947
972
1022
1088
1158
1226
1291
1346
1374
1377
1349
1282
1183
1079
999
953
931
925
928
949
969
978
974
968
960
959
961
962
958
958
952
951
951
950
950
948
946
950
948
949
947
945
944
946
946
946
947
942
943
944
944
947
943
945
943
946
948
949
949
948
948
949
953
954
952
953
953
958
958
959
962
960
962
965
970
971
973
974
973
980
985
989
991
993
998
1002
1006
1009
1011
1013
1014
1019
1024
1028
1028
1030
1032
1037
1041
1041
1042
1040
1045
1048
1049
1049
1047
1045
1042
1040
1041
1038
1036
1029
1023
1023
1018
1013
1008
1004
999
997
992
992
985
983
982
978
978
979
976
975
972
972
973
972
970
968
968
970
971
970
970
969
969
968
970
970
969
970
966
972
974
972
970
970
969
970
973
973
970
969
970
970
974
973
974
973
973
975
975
975
973
971
971
973
974
974
972
971
972
970
973
971
971
969
965
970
972
970
965
966
965
968
967
966
964
963
961
964
964
962
961
957
957
960
961
960
960
957
955
956
956
956
955
954
951
954
957
954
954
950
952
950
950
952
955
952
953
951
951
952
950
949
950
952
955
960
963
959
961
962
963
965
963
965
966
971
971
970
969
970
969
968
968
968
965
960
956
956
957
961
960
961
960
959
960
957
954
948
945
945
945
943
943
941
939
940
939
940
940
936
934
935
937
939
938
936
934
937
937
936
936
934
934
932
938
938
933
926
914
904
899
904
914
925
945
988
1045
1112
1177
1242
1298
1338
1351
1329
1266
1176
1076
995
942
917
910
910
925
948
961
959
952
945
940
940
941
939
937
932
929
930
930
929
928
924
924
924
925
925
926
924
924
923
925
924
925
924
923
927
929
930
929
927
924
927
930
930
929
928
926
927
932
935
935
935
935
939
941
943
941
940
943
948
953
958
959
959
961
967
971
975
977
980
981
989
990
995
995
998
1001
1002
1008
1012
1014
1013
1014
1017
1018
1020
1021
1020
1020
1022
1024
1023
1018
1014
1011
1012
1010
1010
1004
999
994
993
988
981
978
972
968
970
969
967
963
960
956
956
955
955
953
952
950
952
954
954
954
952
948
949
954
952
953
953
951
952
953
953
954
954
954
954
957
955
957
955
955
957
958
956
955
957
953
958
960
958
958
956
958
958
960
960
959
956
954
956
958
957
956
955
955
956
959
960
955
953
953
956
953
954
955
950
949
949
952
952
948
949
949
950
950
950
948
947
944
947
948
948
945
943
944
942
945
945
942
943
942
944
944
945
943
940
942
943
943
946
945
948
950
952
956
956
956
954
955
959
961
962
963
961
959
960
962
963
964
961
960
959
957
954
954
951
953
955
957
958
955
952
948
946
946
943
941
939
938
938
942
936
936
934
930
933
934
934
934
935
933
935
937
935
934
933
933
933
936
935
931
922
911
900
900
906
921
942
978
1040
1118
1197
1269
1322
1353
1353
1323
1239
1121
1012
935
904
903
916
941
957
960
955
949
945
942
940
939
941
937
935
931
932
930
930
931
931
932
931
927
927
930
930
927
928
928
929
931
931
930
