1017
1017
1017
1017
1017
1017
1017
1017
1017
1017
1020
1016
1011
1008
1004
1006
1008
1003
1005
999
997
999
1001
1003
1000
998
999
1000
1003
1004
1001
999
998
998
1001
1001
1002
999
998
1000
1003
1003
1006
999
997
1000
1004
1002
1001
1000
1001
1002
1006
1007
1005
1000
999
1000
1002
1004
1001
997
997
996
1002
998
997
994
996
997
998
996
997
995
995
997
1000
999
998
995
995
999
999
997
998
995
993
994
997
997
996
992
991
994
995
997
994
995
994
996
999
1000
1000
1000
1001
1001
1006
1010
1009
1006
1006
1009
1011
1009
1010
1002
1005
1004
1007
1008
1005
999
996
999
998
999
994
993
991
995
994
995
989
985
983
986
987
987
984
983
980
983
987
985
979
981
978
980
980
980
978
977
975
977
981
979
978
975
974
976
977
981
978
974
976
978
980
981
979
976
975
978
980
983
985
987
989
997
1006
1017
1030
1046
1060
1068
1068
1061
1041
1017
1005
1005
1019
1041
1065
1092
1120
1143
1158
1160
1142
1115
1091
1070
1052
1031
1006
984
964
946
935
927
922
925
933
939
948
957
958
960
958
962
961
964
962
961
960
966
967
970
969
965
965
967
967
968
969
965
966
969
973
975
978
972
972
974
977
977
977
975
975
980
985
989
988
988
990
993
996
1000
999
1000
1001
1004
1010
1009
1015
1014
1015
1023
1027
1029
1030
1030
1032
1036
1041
1042
1040
1040
1040
1046
1049
1052
1050
1047
1042
1042
1041
1036
1030
1021
1016
1012
1008
1005
1001
994
989
989
991
990
987
983
977
980
981
983
980
975
976
978
978
979
975
969
973
975
976
977
977
975
971
974
975
977
975
972
973
976
979
975
976
974
974
972
977
977
977
976
975
973
976
976
976
975
972
977
980
979
975
972
973
978
978
982
978
974
972
973
975
978
977
976
974
975
976
973
973
973
969
972
975
976
972
970
971
971
974
975
972
967
970
973
977
979
979
976
977
980
981
981
978
975
976
980
986
989
985
988
988
990
990
989
984
982
980
981
981
982
982
978
978
978
980
979
974
970
968
969
970
971
969
966
962
961
963
967
965
966
966
965
968
967
964
964
961
962
961
959
960
959
957
959
964
964
963
962
958
963
963
966
963
961
962
962
964
967
965
965
964
961
968
973
972
973
974
984
995
1004
1014
1027
1040
1053
1066
1070
1064
1051
1040
1020
1009
1005
1009
1016
1033
1055
1081
1100
1116
1124
1124
1121
1109
1091
1073
1056
1041
1029
1016
999
983
966
952
940
937
933
930
930
936
943
950
953
954
953
952
954
960
957
957
952
955
958
959
958
957
957
956
957
958
960
962
956
957
960
963
965
962
959
962
962
966
968
968
967
966
969
971
974
974
974
973
980
984
988
985
986
982
988
993
999
996
999
1000
1003
1007
1009
1009
1009
1010
1015
1016
1018
1022
1021
1025
1030
1036
1036
1037
1036
1037
1043
1049
1047
1050
1050
1046
1048
1047
1045
1041
1033
1030
1026
1026
1023
1019
1009
1006
1003
1001
1001
994
994
989
988
989
988
986
982
981
985
987
988
985
981
978
980
982
982
979
981
978
980
983
986
984
985
984
983
987
985
985
983
982
983
987
990
986
983
985
988
989
990
986
985
981
986
987
986
985
985
985
984
988
990
987
982
984
984
990
991
984
982
982
985
990
988
986
984
981
983
985
987
984
982
982
983
984
985
983
980
981
983
982
987
985
982
981
982
985
986
981
982
981
986
988
991
990
986
988
990
992
995
994
994
995
993
1000
1001
1003
1003
1001
1003
1002
1005
1002
999
998
995
997
998
995
992
991
991
994
993
991
989
985
985
988
987
984
985
982
983
983
980
979
981
976
979
982
980
976
974
975
979
979
980
978
974
974
975
977
981
980
976
975
978
978
981
979
979
976
979
983
980
980
980
978
981
984
986
983
982
983
987
994
996
999
999
1010
1023
1034
1050
1059
1068
1070
1068
1061
1048
1027
1014
1014
1027
1048
1072
1100
1122
1142
1161
1173
1174
1160
1137
1115
1099
1082
1066
1048
1025
1002
984
969
954
940
933
928
929
937
944
950
956
959
963
970
972
973
972
968
973
974
975
976
974
974
976
979
981
977
976
975
977
981
982
980
977
978
979
981
985
987
984
986
986
990
991
991
989
988
991
996
999
998
997
1000
1002
1005
1008
1009
1007
1010
1013
1016
1018
1021
1019
1019
1024
1028
1033
1033
1031
1031
1038
1041
1044
1047
1046
1046
1048
1054
1056
1058
1058
1059
1062
1062
1066
1069
1064
1063
1063
1065
1062
1058
1049
1046
1043
1040
1040
1033
1027
1021
1017
1017
1016
1008
1005
1005
1006
1004
1005
1004
998
998
999
999
999
997
995
993
994
996
998
995
994
995
993
995
1000
995
993
991
994
998
998
996
994
995
995
995
999
996
994
991
993
995
993
994
991
990
992
994
994
993
990
985
988
993
994
992
989
989
991
996
996
995
990
988
990
994
994
993
991
989
989
993
995
993
990
988
992
994
993
991
990
987
988
990
990
989
988
987
992
990
988
988
983
989
992
992
992
991
990
994
1000
1001
1000
996
995
997
1002
1004
1003
1000
1001
1003
1006
1007
1004
1000
998
999
1001
1000
998
994
993
992
994
993
993
989
984
983
988
989
984
982
979
984
986
986
980
975
971
973
978
979
980
975
973
975
976
978
975
971
969
971
974
974
974
970
969
973
973
972
973
969
967
972
969
969
971
968
967
969
972
972
973
971
970
972
974
976
973
971
972
977
982
988
991
994
1001
1012
1027
1042
1051
1053
1054
1053
1047
1034
1014
999
991
1000
1018
1040
1066
1084
1106
1129
1150
1162
1158
1144
1121
1102
1086
1067
1048
1025
1004
984
966
949
932
923
915
913
920
923
930
933
936
942
951
955
956
955
953
953
956
960
959
954
956
957
959
960
960
959
957
958
961
963
963
958
960
962
962
963
965
964
962
963
966
968
970
968
968
969
973
977
974
971
972
977
980
981
984
984
985
987
990
994
995
996
998
998
1004
1008
1009
1008
1011
1016
1018
1021
1021
1021
1024
1029
1031
1031
1032
1031
1033
1035
1040
1044
1043
1041
1040
1038
1039
1039
1033
1027
1019
1018
1016
1014
1007
1002
997
994
992
991
988
982
981
982
982
982
980
974
969
971
972
972
972
966
963
966
967
971
968
965
962
965
968
967
968
963
963
966
966
966
965
964
963
967
970
970
968
963
964
965
968
968
964
965
963
965
965
966
966
963
962
965
964
969
965
963
961
964
966
965
966
961
958
958
966
967
967
966
963
963
967
967
965
966
963
967
963
966
967
962
958
958
960
963
962
958
957
963
967
970
971
968
967
968
968
974
973
970
972
975
977
984
985
982
978
977
978
979
978
973
973
970
972
970
967
968
967
970
969
973
968
962
957
959
961
960
957
954
952
957
960
963
961
956
956
956
958
959
958
951
951
953
956
957
955
954
954
955
958
960
956
958
957
958
962
963
963
959
959
964
968
972
972
974
973
981
997
1011
1029
1041
1055
1074
1086
1090
1085
1075
1061
1048
1043
1038
1040
1050
1071
1096
1125
1150
1165
1175
1175
1165
1156
1142
1127
1110
1092
1076
1061
1038
1016
989
966
951
940
933
927
931
934
939
943
947
950
950
947
946
948
948
946
944
945
944
949
953
949
946
945
947
949
949
951
950
947
947
951
950
953
950
949
953
955
961
959
957
955
956
957
961
963
961
962
965
967
970
971
971
970
973
979
981
983
980
984
986
990
993
995
995
996
998
1006
1010
1014
1009
1010
1015
1019
1025
1028
1030
1032
1037
1042
1048
1050
1047
1045
1046
1049
1047
1045
1038
1034
1032
1029
1026
1021
1013
1006
1006
1005
1004
1000
995
993
994
995
993
996
989
990
990
991
994
991
989
987
991
992
992
991
989
987
988
991
994
991
989
989
989
993
993
992
992
990
994
994
993
994
992
990
994
997
998
995
994
992
993
998
998
997
995
995
995
999
1003
1000
997
994
996
998
999
997
995
991
992
999
999
999
998
995
997
997
1000
999
996
994
996
998
997
998
994
993
992
995
997
995
994
994
993
996
999
997
993
992
995
999
1003
1003
1000
998
998
1002
1004
1004
1002
1004
1005
1008
1014
1011
1010
1008
1009
1009
1008
1008
1004
1003
1005
1007
1006
1001
998
994
996
999
1000
1000
995
994
994
995
997
996
993
989
988
989
990
989
986
983
988
986
990
986
985
984
986
988
987
986
983
980
981
982
985
982
984
980
983
984
987
983
983
984
982
989
988
989
988
984
988
992
995
997
998
1001
1008
1023
1039
1054
1071
1085
1091
1097
1092
1080
1065
1056
1055
1069
1093
1122
1144
1168
1191
1209
1215
1201
1177
1156
1140
1128
1111
1085
1058
1029
997
977
961
951
943
939
944
956
962
966
971
970
970
974
975
972
972
969
972
972
974
973
970
970
972
975
976
976
970
970
972
974
975
975
975
969
971
975
976
976
973
974
976
978
980
982
979
980
977
985
989
989
988
988
992
995
998
999
1001
1001
1005
1008
1012
1011
1011
1012
1017
1020
1026
1028
1027
1029
1031
1037
1041
1045
1048
1047
1054
1061
1062
1062
1059
1056
1056
1055
1051
1047
1040
1034
1032
1031
1031
1025
1018
1015
1008
1012
1013
1010
1005
1002
1003
1005
1006
1002
999
995
994
996
998
997
998
996
994
996
999
998
996
993
996
998
1002
999
996
992
996
997
1001
998
994
993
994
997
998
996
995
992
995
997
997
996
991
991
991
993
996
996
990
988
990
992
994
990
989
989
989
990
993
990
988
987
988
988
992
990
989
984
986
990
992
989
988
986
985
988
989
990
986
983
984
990
993
988
987
986
987
990
992
991
987
989
989
996
999
998
996
994
996
1000
1000
1002
1001
1002
1002
1008
1010
1007
1003
998
1001
1002
1004
999
994
993
995
995
996
994
991
989
989
989
991
991
988
986
985
985
986
981
979
980
983
986
986
983
979
974
976
982
980
979
976
976
977
980
982
980
980
976
974
980
982
980
979
978
977
980
982
980
979
974
978
982
985
982
985
987
991
999
1004
1012
1023
1038
1056
1067
1074
1074
1062
1047
1038
1036
1044
1059
1084
1110
1141
1170
1190
1197
1191
1167
1148
1129
1110
1087
1060
1029
998
975
957
940
928
922
924
934
946
953
956
956
964
964
968
965
962
958
965
963
966
966
966
963
967
969
973
971
968
967
969
970
973
972
970
969
970
973
977
975
972
975
976
981
984
981
982
981
982
987
991
990
989
990
991
996
1003
1001
1002
1002
1007
1014
1018
1017
1017
1021
1023
1027
1031
1033
1029
1029
1037
1042
1046
1045
1047
1047
1051
1056
1059
1059
1055
1050
1045
1045
1046
1041
1032
1026
1021
1020
1019
1015
1008
1003
1000
1001
1000
997
991
992
990
993
995
995
988
987
989
990
993
989
986
983
988
990
992
990
985
982
984
987
989
986
981
983
983
987
987
987
982
978
982
984
986
984
983
981
980
982
983
982
982
978
979
983
984
983
981
979
981
982
983
982
978
978
980
980
984
981
978
977
978
977
980
979
976
974
975
978
979
976
974
976
976
978
979
977
971
970
972
975
976
977
972
974
972
977
978
976
975
973
973
979
982
982
981
980
982
984
986
984
983
980
985
989
990
990
983
984
987
987
989
986
983
980
978
979
983
978
974
970
973
973
974
971
969
962
962
968
966
967
961
959
959
964
967
964
960
957
960
962
962
959
958
956
956
960
961
958
956
954
955
957
959
961
956
957
956
958
961
960
960
956
961
961
961
961
961
960
962
966
972
971
972
978
991
1010
1026
1043
1054
1058
1061
1057
1042
1020
1006
1004
1016
1041
1075
1106
1129
1148
1164
1172
1164
1142
1118
1095
1072
1050
1029
1003
977
952
934
925
916
911
912
917
925
935
940
946
942
942
941
945
947
946
941
942
940
941
946
947
945
944
948
950
953
953
951
947
950
951
955
954
953
954
955
959
961
963
961
959
963
968
969
970
971
966
972
981
983
986
984
986
990
993
998
1001
1002
1004
1006
1010
1017
1015
1017
1017
1021
1026
1035
1034
1038
1038
1041
1042
1046
1044
1037
1026
1026
1023
1020
1014
1006
997
993
990
991
990
985
979
979
980
977
977
974
973
974
976
978
975
971
972
972
975
977
976
973
970
971
976
977
977
972
972
973
975
977
977
975
972
974
976
978
977
972
969
969
976
976
976
974
971
974
978
980
979
976
974
974
976
980
977
975
973
974
976
978
978
974
973
973
978
980
980
977
977
974
978
982
976
976
975
974
978
980
979
977
974
976
979
980
979
976
974
976
977
983
983
983
982
985
986
988
988
987
985
987
993
998
996
996
997
996
1000
1000
998
994
991
994
992
992
992
989
986
989
989
990
989
986
982
980
981
987
985
983
978
979
979
982
979
975
976
977
981
983
982
979
974
976
978
978
977
976
972
975
976
980
979
977
973
975
976
980
980
976
975
975
977
982
979
976
976
975
978
984
981
979
976
981
986
989
993
994
997
1004
1015
1027
1040
1049
1059
1072
1078
1080
1069
1055
1038
1029
1034
1045
1061
1079
1102
1132
1156
1173
1182
1176
1162
1144
1131
1115
1098
1079
1059
1038
1017
998
976
959
942
937
937
938
942
944
947
954
965
972
971
969
969
969
969
971
970
971
968
970
971
975
975
970
970
971
972
976
974
975
974
975
976
981
978
975
974
977
982
985
985
980
982
982
987
990
988
990
990
990
992
996
998
998
999
1000
1003
1008
1008
1009
1009
1013
1018
1022
1021
1021
1023
1026
1028
1033
1035
1033
1034
1037
1041
1046
1049
1049
1050
1053
1058
1060
1066
1065
1064
1062
1064
1066
1059
1052
1047
1043
1042
1041
1035
1027
1022
1019
1020
1019
1014
1008
1006
1004
1006
1007
1005
1001
996
998
999
1004
1001
998
996
995
995
1001
1001
998
993
995
996
999
999
996
995
996
996
1000
1000
996
997
998
1001
1003
999
998
996
997
999
1003
1001
997
997
994
999
1002
1000
997
993
993
998
1000
999
994
992
993
996
998
996
995
990
991
994
999
997
994
992
993
996
999
994
991
988
990
993
994
994
991
988
992
993
994
992
991
990
989
990
993
995
990
986
987
992
993
992
992
993
996
999
1003
1002
997
994
996
1001
1004
1006
1004
1004
1006
1009
1011
1012
1006
1002
1003
1005
1007
1004
1001
1001
997
998
1001
996
992
992
990
995
996
995
991
986
987
992
993
990
981
980
983
983
988
987
984
982
981
984
983
980
980
979
979
983
984
984
979
977
978
982
983
982
977
980
979
983
985
983
981
980
980
983
986
982
981
980
982
984
985
984
985
988
993
1001
1006
1011
1018
1026
1042
1058
1068
1077
1079
1071
1063
1051
1040
1037
1040
1051
1073
1101
1128
1153
1172
1187
1194
1191
1178
1153
1136
1120
1101
1086
1071
1048
1021
998
974
958
946
938
930
927
931
943
950
955
963
964
965
967
968
969
967
966
967
970
972
972
972
967
968
971
974
974
972
971
972
975
976
978
974
974
975
977
979
978
975
977
979
982
985
984
983
983
981
985
992
992
989
989
989
994
997
995
997
997
1002
1005
1005
1007
1005
1006
1010
1018
1023
1022
1023
1023
1024
1031
1035
1035
1035
1034
1038
1045
1045
1048
1050
1049
1053
1057
1061
1061
1059
1056
1053
1054
1051
1046
1040
1031
1029
1026
1027
1022
1016
1011
1005
1005
1008
1003
1001
997
994
996
996
995
993
990
990
994
993
990
987
987
987
990
992
991
989
987
987
989
991
989
985
985
982
987
988
986
986
985
983
987
989
988
986
981
984
986
988
987
987
984
984
988
989
987
986
982
984
986
989
986
985
982
984
986
988
986
980
977
982
983
985
983
983
980
982
984
985
984
983
980
981
984
985
983
982
981
978
984
983
982
980
976
980
981
985
984
980
982
981
983
986
985
986
984
988
990
995
993
993
992
993
999
1000
1001
998
996
998
999
1000
1001
994
990
992
994
994
992
988
985
984
986
986
986
984
980
980
982
985
984
979
975
974
977
978
979
975
972
974
974
976
974
970
969
967
970
974
973
970
968
965
970
971
970
967
966
968
970
973
972
968
966
965
968
971
972
969
967
967
970
975
975
974
976
980
986
995
1001
1007
1018
1030
1044
1055
1062
1062
1053
1041
1030
1019
1016
1017
1032
1058
1091
1118
1143
1157
1165
1162
1149
1131
1108
1082
1060
1041
1017
996
973
951
933
922
915
911
909
908
913
923
934
942
947
947
948
947
950
952
952
951
949
948
953
955
951
951
949
949
956
957
955
952
949
952
956
960
958
956
954
955
958
960
961
960
958
960
965
968
966
966
966
964
968
971
972
973
973
973
977
982
984
984
983
987
991
994
996
993
997
1001
1006
1012
1011
1011
1008
1009
1015
1023
1023
1024
1024
1027
1031
1035
1039
1037
1037
1036
1040
1042
1038
1035
1030
1026
1026
1019
1019
1009
1003
1000
997
996
991
984
977
978
979
979
974
970
965
965
966
970
969
965
964
963
962
965
963
961
957
960
961
965
965
959
958
959
964
966
964
959
958
960
964
964
964
960
958
958
960
963
962
960
960
958
959
960
961
958
959
957
961
966
963
962
959
960
962
963
966
963
961
960
962
964
963
960
956
958
960
961
958
958
957
955
961
962
961
958
957
958
958
962
961
957
957
957
959
959
960
959
954
959
963
966
966
964
963
965
968
973
970
968
969
972
975
976
974
976
978
977
978
980
979
976
973
969
973
974
972
968
962
965
967
966
966
963
959
957
961
964
955
957
954
953
957
961
961
958
957
955
959
958
957
956
955
957
956
960
958
957
955
954
960
962
961
958
957
958
961
963
963
965
962
966
971
979
985
990
1002
1018
1033
1049
1056
1061
1055
1045
1030
1017
1004
1007
1020
1041
1066
1094
1113
1128
1138
1147
1140
1131
1109
1088
1072
1049
1034
1023
1000
978
959
943
930
927
920
919
923
931
940
946
951
952
952
952
957
958
955
952
956
955
958
961
960
960
957
961
963
965
960
961
958
959
962
965
966
964
963
964
966
971
970
967
969
971
973
976
978
977
974
977
981
988
985
985
985
989
991
998
999
997
999
1000
1003
1007
1010
1012
1012
1016
1021
1025
1027
1027
1028
1028
1033
1039
1041
1042
1041
1046
1050
1056
1055
1052
1052
1052
1054
1049
1046
1041
1035
1031
1028
1027
1023
1018
1011
1009
1005
1007
1003
998
993
992
995
993
994
988
984
984
986
985
989
986
984
986
984
989
990
986
984
984
985
986
984
984
983
984
986
991
987
985
984
981
986
991
989
987
985
986
988
991
988
987
987
985
989
991
988
987
986
983
986
989
988
985
983
981
984
988
985
984
984
980
984
988
984
985
981
979
985
987
986
983
982
979
981
984
985
985
981
981
984
985
981
977
977
979
981
984
984
983
980
981
983
987
987
987
988
987
990
994
994
992
993
993
997
1002
1003
1001
994
997
996
996
997
994
991
989
989
991
989
988
985
984
986
986
984
984
981
983
985
984
984
977
971
970
974
978
976
977
972
974
973
975
971
970
964
965
971
975
974
971
967
968
970
972
973
968
969
969
972
974
975
972
970
971
973
974
974
970
972
974
979
984
989
992
994
1004
1016
1033
1042
1055
1061
1060
1058
1050
1032
1020
1013
1018
1033
1060
1082
1108
1130
1155
1171
1179
1164
1141
1116
1097
1081
1066
1042
1014
988
962
945
933
926
917
921
924
937
945
953
954
955
962
963
964
963
961
962
963
964
970
971
966
963
965
969
973
971
970
965
966
966
969
968
963
965
966
970
976
978
978
973
976
978
984
985
982
979
980
984
991
992
989
989
992
996
1000
999
998
996
997
1002
1009
1010
1011
1010
1013
1017
1021
1023
1023
1023
1027
1030
1037
1039
1038
1035
1041
1046
1051
1050
1053
1050
1051
1057
1055
1049
1043
1037
1028
1028
1024
1022
1016
1008
1007
1006
1006
1004
999
992
991
990
992
991
986
980
982
983
987
984
982
979
983
984
984
982
982
980
981
982
986
983
979
976
978
982
987
984
984
984
983
985
984
983
977
976
978
983
986
985
982
980
981
981
982
980
976
977
978
979
982
979
980
976
975
977
979
978
977
974
977
978
981
981
975
973
973
975
978
981
973
972
975
973
977
977
977
973
972
971
974
974
970
969
973
971
977
979
977
974
973
978
984
983
981
979
980
981
986
987
985
985
985
990
996
993
994
989
991
993
995
992
986
983
981
984
987
985
982
979
980
981
981
978
973
971
970
971
977
976
972
968
963
967
970
970
969
966
967
967
969
967
965
965
964
969
970
967
964
962
960
966
966
965
963
960
963
962
967
966
962
962
960
963
968
966
965
965
966
967
973
973
975
976
980
984
996
1006
1014
1028
1039
1045
1051
1044
1030
1013
1002
997
1008
1023
1043
1070
1096
1124
1149
1163
1162
1150
1130
1111
1093
1076
1051
1022
997
973
951
933
918
910
907
911
918
926
931
938
945
951
956
957
954
950
950
954
960
957
956
955
955
958
958
962
959
958
959
962
964
961
960
956
962
960
965
967
964
963
965
968
971
971
969
969
971
974
980
979
976
979
981
985
989
991
990
990
994
996
1005
1004
1004
1005
1010
1014
1019
1020
1019
1019
1020
1022
1028
1030
1031
1033
1036
1040
1044
1044
1044
1040
1041
1040
1038
1033
1029
1022
1016
1015
1014
1009
1001
994
992
989
988
988
984
980
980
981
983
980
975
970
971
972
974
972
970
968
965
969
972
970
972
965
968
969
974
973
969
967
967
968
973
973
971
967
963
965
973
970
965
966
965
968
967
966
965
960
960
963
962
962
961
959
960
964
967
964
962
958
957
961
964
963
960
955
955
960
959
958
955
953
952
955
959
961
959
954
955
958
960
956
956
954
957
957
957
957
956
954
953
955
957
955
954
957
955
960
962
962
961
958
960
965
969
970
970
966
967
970
970
969
960
958
963
963
964
962
957
956
955
956
959
957
953
948
948
948
951
950
946
943
941
939
942
943
940
937
937
937
941
941
939
937
936
937
937
936
935
933
935
938
939
939
938
937
934
935
941
940
938
937
933
937
941
940
938
938
939
944
948
953
955
957
962
973
987
1002
1011
1018
1022
1023
1020
1003
979
959
950
956
975
998
1023
1050
1075
1096
1110
1114
1101
1078
1058
1042
1025
1005
985
965
945
930
918
905
894
886
885
889
898
904
912
916
919
924
925
923
922
921
923
927
930
930
923
920
919
924
927
928
928
927
928
929
931
932
928
928
927
932
935
934
935
935
939
942
946
946
945
943
947
949
956
958
955
957
960
961
967
970
970
970
974
977
980
984
985
985
987
991
996
998
998
1001
999
1005
1011
1013
1013
1014
1014
1018
1015
1015
1013
1007
1002
1000
995
991
982
975
971
970
967
964
961
955
952
952
953
954
949
945
944
947
947
948
943
940
940
943
943
944
943
945
944
944
948
950
946
943
942
946
951
949
950
946
946
948
954
953
951
948
947
950
951
952
950
949
946
949
953
951
951
949
949
952
954
953
950
950
949
953
955
955
949
949
946
952
954
953
950
950
947
952
954
956
953
950
950
953
955
955
953
951
952
953
955
955
955
955
954
959
965
966
964
960
960
965
968
970
970
965
968
974
977
977
976
973
970
973
973
970
968
964
963
965
968
966
966
958
960
960
964
964
960
956
956
957
960
958
954
952
951
954
958
959
954
950
949
953
958
956
953
949
946
949
952
956
953
951
949
949
956
956
954
950
950
953
955
953
953
951
950
956
958
958
956
952
955
961
969
974
975
980
992
1008
1023
1037
1046
1051
1050
1047
1039
1025
1012
1009
1019
1041
1068
1093
1119
1135
1151
1160
1155
1137
1111
1090
1075
1059
1043
1022
995
970
951
937
927
919
911
907
909
916
929
931
938
938
939
943
945
946
944
943
943
941
948
949
946
941
941
948
949
948
946
943
945
946
951
950
948
945
947
951
953
953
953
951
952
954
958
960
961
956
957
961
962
966
964
963
964
968
974
975
974
972
975
979
981
983
981
986
987
991
996
999
998
998
999
1003
1007
1009
1011
1011
1015
1018
1024
1027
1026
1028
1027
1032
1038
1035
1033
1028
1024
1023
1023
1018
1012
1005
1003
999
1000
995
990
986
984
982
982
977
976
974
972
973
975
975
970
969
969
968
973
972
970
966
967
968
967
969
971
967
970
971
974
973
970
968
968
969
975
974
971
968
970
973
973
975
972
968
970
972
976
973
972
968
968
968
974
974
969
966
970
971
974
972
970
967
966
971
971
971
970
968
967
966
971
973
970
968
966
967
970
969
969
967
967
967
972
971
970
967
966
968
969
968
966
966
966
965
972
970
968
965
967
971
978
976
972
972
978
977
983
983
982
978
979
985
989
990
986
983
981
985
986
984
981
981
975
977
980
979
974
973
974
974
973
977
972
968
967
969
974
974
969
965
962
964
965
966
965
963
962
963
964
961
958
956
960
960
964
962
961
959
956
958
963
964
960
957
957
961
961
963
962
961
960
961
964
965
962
959
962
965
969
970
971
971
974
978
992
1000
1011
1018
1035
1048
1059
1063
1057
1045
1032
1023
1019
1025
1037
1057
1084
1115
1139
1156
1165
1162
1148
1126
1109
1092
1074
1049
1030
1008
985
964
945
927
918
916
917
921
927
933
936
944
948
950
950
947
947
951
954
952
950
950
949
953
957
956
957
954
954
954
959
957
956
954
953
960
960
964
960
957
957
960
962
965
966
965
963
968
974
973
974
973
974
976
979
980
981
978
982
991
996
1000
1000
998
996
1000
1000
1001
1000
999
999
1008
1014
1014
1018
1017
1019
1021
1025
1029
1034
1033
1032
1040
1043
1044
1042
1041
1041
1042
1043
1041
1035
1030
1024
1022
1021
1019
1009
1005
1001
1000
1001
997
993
990
988
987
984
985
984
980
978
977
982
980
978
975
970
976
979
976
975
973
972
971
978
978
975
973
975
975
980
977
974
972
968
976
978
977
973
972
971
972
976
976
975
972
971
972
974
976
976
971
971
971
975
972
972
972
968
969
974
974
974
970
970
974
975
974
972
973
970
973
976
975
971
970
968
970
973
974
973
971
969
971
972
971
971
970
969
972
974
974
970
967
966
969
971
973
969
965
965
971
975
979
978
976
975
977
982
982
979
977
979
984
986
987
987
985
985
984
985
984
982
978
979
981
978
979
975
972
969
972
973
970
969
965
965
967
968
968
967
963
959
963
966
964
964
959
957
960
963
966
962
959
957
964
963
962
960
959
959
959
962
961
962
957
957
962
964
962
960
958
955
961
965
964
962
961
961
963
970
974
975
974
981
987
1000
1011
1024
1032
1038
1045
1048
1047
1030
1015
1006
1006
1021
1038
1060
1081
1106
1127
1145
1156
1152
1142
1118
1100
1085
1070
1049
1027
1005
984
963
943
926
913
903
903
910
919
923
931
935
943
948
953
951
948
945
946
951
953
950
950
951
953
955
955
955
952
951
953
957
959
955
954
957
959
964
963
962
958
958
963
966
969
968
964
964
968
971
976
974
974
974
979
982
983
984
981
983
986
988
991
993
990
991
999
1001
1006
1008
1007
1010
1012
1017
1019
1017
1019
1020
1024
1029
1033
1034
1035
1034
1036
1045
1047
1043
1040
1039
1038
1037
1034
1030
1024
1017
1017
1016
1010
1006
999
997
995
995
991
984
980
981
980
982
982
978
977
974
976
977
976
975
973
971
971
975
977
972
972
971
968
973
975
973
972
971
972
972
973
974
970
968
972
972
975
973
970
970
971
974
976
973
971
970
970
972
973
971
971
969
972
973
973
972
966
968
971
973
970
967
967
967
967
972
971
969
965
964
966
968
968
967
964
964
967
969
969
968
966
964
967
972
971
968
964
962
963
967
971
968
963
965
965
970
973
973
971
975
975
976
977
976
977
978
982
986
986
987
986
985
987
985
984
980
978
976
976
978
977
975
973
970
970
972
974
971
969
968
967
971
971
966
962
959
961
961
965
964
964
961
962
960
959
961
960
958
958
961
962
960
958
959
960
963
963
960
956
958
959
961
962
959
959
959
959
965
967
966
963
964
973
986
994
1003
1014
1027
1039
1049
1052
1045
1029
1014
1003
1004
1014
1029
1049
1075
1106
1127
1144
1153
1150
1132
1115
1097
1075
1057
1032
1008
990
969
950
930
915
907
904
909
917
923
927
933
939
947
949
948
947
947
949
953
953
952
951
950
953
956
954
953
950
951
955
958
959
957
955
953
957
960
964
961
960
961
964
967
969
966
966
965
971
976
977
977
975
976
979
980
983
983
982
984
988
993
995
995
996
996
999
1006
1009
1010
1007
1009
1013
1020
1023
1023
1023
1025
1027
1031
1037
1037
1033
1035
1041
1048
1047
1044
1043
1043
1040
1042
1039
1031
1027
1022
1018
1014
1010
1004
999
996
993
993
988
984
981
981
981
982
979
977
975
975
975
979
974
973
971
969
971
973
975
973
970
972
969
975
978
975
973
970
973
975
976
975
973
971
974
975
974
975
973
972
973
974
976
974
974
971
972
975
975
973
971
971
970
972
972
973
968
969
971
974
974
972
970
969
971
973
974
973
969
968
970
971
974
971
969
967
967
971
973
970
967
966
965
970
970
970
967
966
966
972
971
970
966
968
972
973
975
973
969
974
977
981
981
979
978
976
976
982
986
985
985
984
987
990
990
990
984
983
985
986
987
984
981
976
978
981
981
976
973
970
972
973
975
975
969
968
967
971
971
968
961
962
963
967
970
966
961
958
961
961
962
963
955
957
957
963
963
960
959
957
958
962
962
960
957
957
959
958
963
961
959
960
961
962
962
960
960
956
960
963
967
967
967
968
977
983
992
1001
1011
1022
1035
1043
1043
1040
1030
1014
1001
994
994
1004
1022
1045
1073
1100
1121
1135
1145
1145
1134
1116
1097
1074
1050
1026
1010
987
960
937
915
904
899
902
904
911
919
924
932
942
948
947
945
944
944
948
950
948
947
945
947
949
953
949
948
947
950
953
954
955
953
953
955
959
960
960
959
956
960
964
966
966
963
963
968
972
973
973
974
972
976
980
985
984
984
984
988
992
995
997
997
1000
1003
1009
1012
1013
1013
1014
1020
1024
1029
1029
1029
1031
1032
1040
1043
1041
1041
1040
1041
1044
1042
1039
1033
1028
1025
1023
1018
1014
1007
1002
1002
995
993
989
983
979
979
979
979
978
972
968
972
975
974
971
969
966
965
968
970
967
967
967
968
970
971
966
966
966
965
966
968
967
964
962
966
966
968
965
964
965
966
970
969
968
964
964
966
969
971
968
965
961
966
966
969
967
964
962
963
968
967
967
964
964
965
967
967
966
960
964
964
967
965
963
960
958
960
964
964
964
960
959
960
965
966
967
961
961
958
961
967
967
967
968
968
972
972
972
971
971
974
978
982
980
981
978
977
980
979
978
974
972
973
974
974
971
969
967
964
965
963
965
961
959
958
957
957
958
952
954
956
959
963
961
959
956
954
957
957
956
953
952
953
954
958
956
953
952
954
958
958
956
952
953
957
961
958
956
955
956
960
962
961
960
959
958
959
961
966
972
973
978
990
1002
1016
1035
1048
1056
1063
1066
1057
1041
1019
1002
998
1003
1021
1041
1063
1093
1119
1140
1155
1152
1142
1119
1099
1082
1063
1040
1019
1002
983
967
949
935
924
918
921
927
935
937
939
944
943
950
949
947
944
943
947
949
951
951
948
947
949
953
954
952
950
947
948
952
956
954
953
954
956
960
959
958
958
958
963
965
969
971
968
969
973
977
980
981
980
981
983
992
995
995
996
999
1002
1010
1013
1012
1015
1015
1019
1024
1028
1027
1029
1030
1035
1038
1045
1046
1045
1045
1046
1049
1050
1045
1040
1037
1036
1033
1030
1023
1015
1009
1005
1005
1004
997
994
990
989
990
988
986
981
979
980
983
984
980
978
976
978
980
981
978
975
975
977
979
982
980
977
973
978
978
981
977
975
977
976
981
983
983
980
979
981
983
984
983
981
980
982
984
986
982
980
980
981
985
985
983
979
978
982
983
985
984
978
978
981
983
984
983
979
978
980
984
982
980
977
979
977
981
981
980
979
977
976
980
979
982
980
977
977
982
982
981
980
979
980
988
991
989
988
987
986
987
993
992
991
992
994
1000
1000
999
991
991
993
994
994
990
987
984
986
987
987
985
981
977
980
982
983
979
979
974
974
977
974
976
972
970
973
975
975
972
970
969
971
975
975
973
970
969
970
974
976
973
970
967
971
975
973
974
969
970
972
974
975
975
971
970
973
978
979
978
979
982
988
997
1004
1014
1025
1036
1053
1064
1070
1064
1052
1038
1025
1025
1029
1043
1061
1089
1118
1145
1168
1178
1177
1163
1141
1123
1107
1088
1065
1039
1017
994
971
952
935
925
921
928
935
942
948
953
956
962
962
962
958
959
960
962
965
963
961
961
962
963
965
967
962
963
966
965
969
969
967
965
969
968
972
969
972
972
973
979
980
980
980
980
983
986
989
990
988
987
991
997
1002
1002
1001
1004
1007
1009
1014
1016
1018
1019
1021
1025
1029
1032
1031
1034
1036
1041
1046
1047
1048
1049
1053
1053
1052
1047
1044
1038
1034
1033
1029
1023
1014
1007
1009
1009
1004
1003
994
993
993
995
991
989
987
983
984
984
986
984
982
980
979
984
986
983
984
980
982
983
985
984
979
980
981
983
984
983
979
980
980
984
986
984
978
979
981
981
984
981
981
977
978
979
984
983
980
978
975
983
984
981
978
977
979
981
982
981
976
977
974
980
983
978
976
972
976
978
977
974
975
975
975
979
979
977
974
971
974
978
976
977
974
974
976
979
984
981
982
979
983
986
986
987
984
981
988
992
996
992
992
992
992
990
990
989
987
984
985
986
985
984
981
978
977
979
979
978
974
970
970
975
977
975
971
967
968
967
966
969
967
968
969
969
968
968
963
960
963
966
967
966
963
961
960
965
967
966
962
960
961
964
966
964
962
960
962
967
967
967
962
961
959
965
967
966
963
966
971
975
981
990
994
1003
1013
1029
1042
1046
1050
1048
1041
1030
1017
1010
1010
1021
1044
1069
1097
1119
1137
1151
1158
1153
1140
1118
1096
1078
1061
1047
1024
998
972
947
931
923
915
914
907
912
921
934
942
947
948
947
949
952
954
954
950
948
952
953
957
957
953
954
955
960
962
960
960
958
960
963
963
961
959
959
962
962
966
966
966
963
968
966
970
965
965
967
969
974
977
978
976
975
979
980
986
985
985
987
987
990
994
1000
1000
996
1002
1010
1013
1016
1016
1017
1017
1023
1024
1029
1030
1030
1034
1040
1041
1043
1041
1039
1043
1047
1046
1044
1041
1035
1035
1034
1029
1025
1016
1013
1008
1009
1005
1000
998
994
993
993
990
986
985
980
980
983
984
981
979
975
977
979
981
977
976
975
972
978
978
974
973
971
972
975
977
975
972
972
975
974
976
975
974
970
970
974
978
977
974
972
974
977
977
977
975
974
974
978
978
978
974
973
972
975
976
976
971
970
973
975
975
973
971
968
970
973
973
976
972
968
972
973
973
973
970
969
966
967
969
972
968
967
966
968
969
970
968
965
967
968
971
968
965
966
965
969
970
970
968
964
967
973
979
977
976
974
975
977
981
982
980
981
982
982
985
984
985
981
982
978
981
981
974
972
970
974
978
975
969
967
966
973
973
972
968
963
964
969
969
967
965
960
959
961
962
963
958
958
961
961
962
960
957
956
955
959
959
959
956
955
955
959
960
959
955
953
953
957
957
956
956
954
953
955
960
957
957
954
955
958
961
961
959
955
957
962
965
970
969
972
980
987
1001
1011
1020
1026
1035
1039
1041
1030
1014
995
989
996
1006
1027
1048
1073
1098
1122
1142
1150
1146
1132
1112
1095
1076
1060
1036
1012
993
967
947
928
913
900
899
899
907
914
918
925
934
938
942
945
944
941
943
948
950
949
949
947
947
949
951
953
948
948
949
950
956
956
953
951
953
953
960
958
955
952
955
958
962
964
961
960
962
966
971
969
969
970
972
976
979
979
980
978
982
987
992
990
991
990
994
1002
1005
1007
1007
1005
1008
1012
1019
1018
1018
1018
1023
1027
1031
1030
1030
1031
1035
1038
1043
1044
1040
1039
1036
1036
1036
1033
1025
1017
1014
1013
1012
1004
999
996
992
992
992
986
982
978
978
978
979
977
973
971
971
975
976
973
972
968
968
969
971
973
968
966
968
967
968
967
968
965
966
968
970
971
967
967
965
968
969
970
965
963
965
967
972
969
967
965
966
969
971
966
962
961
963
966
968
968
969
964
965
966
970
967
963
962
964
965
968
967
964
962
960
963
967
964
960
958
960
963
965
963
961
959
960
961
963
963
960
957
960
963
966
963
958
960
961
963
967
966
966
966
965
971
974
974
971
969
973
976
978
979
976
977
980
981
982
977
975
973
975
975
977
974
967
967
967
969
969
967
963
959
960
961
963
963
960
958
956
957
956
957
954
952
955
957
955
955
951
948
951
955
953
955
952
950
952
954
957
954
952
949
950
954
955
955
953
950
951
952
951
954
954
950
952
955
955
955
955
954
957
959
963
965
968
970
980
992
1008
1019
1024
1030
1034
1036
1029
1012
995
984
991
1006
1025
1051
1071
1092
1115
1133
1141
1139
1127
1106
1086
1070
1058
1039
1018
993
972
952
934
919
904
897
896
898
902
908
915
922
930
936
940
939
942
938
937
941
947
945
943
943
944
947
952
949
948
945
946
951
953
950
949
951
951
953
956
957
958
952
954
959
962
960
961
959
963
966
970
969
967
965
969
971
978
977
977
974
978
981
987
988
987
988
991
996
1002
1004
1001
1000
1005
1011
1015
1014
1012
1013
1018
1020
1026
1028
1027
1028
1033
1035
1039
1038
1036
1037
1038
1041
1042
1037
1034
1029
1026
1023
1021
1017
1007
1002
997
996
995
993
987
981
975
981
982
978
973
971
971
973
973
968
968
967
967
968
969
967
967
965
964
967
967
967
967
965
966
967
968
968
963
963
960
968
971
968
966
965
965
968
970
966
965
962
962
967
968
967
966
962
965
965
968
967
962
960
959
964
965
965
960
960
961
962
965
962
960
958
958
962
963
958
956
957
957
959
960
961
954
954
955
956
961
961
959
957
958
960
961
960
957
955
956
960
962
963
962
962
962
966
968
968
966
963
967
969
974
977
976
974
973
976
979
976
971
969
968
971
969
967
964
961
960
963
965
963
960
955
955
959
960
957
951
949
948
953
958
957
954
949
949
948
953
951
948
947
948
950
952
952
950
947
947
952
952
950
949
945
949
949
953
951
948
945
946
951
955
952
952
953
957
964
973
986
998
1010
1025
1033
1031
1019
998
975
975
990
1017
1046
1074
1100
1122
1138
1143
1134
1110
1086
1065
1049
1031
1009
983
956
932
915
907
897
891
886
890
900
908
917
921
926
932
936
940
938
937
936
938
940
942
942
939
939
941
944
945
944
940
940
942
946
948
946
946
945
943
948
951
950
950
950
952
956
958
958
956
958
960
963
965
967
962
965
967
965
973
975
974
977
981
984
989
988
990
992
995
1001
1004
1004
1003
1006
1010
1014
1017
1020
1021
1019
1020
1026
1031
1029
1028
1028
1031
1033
1034
1035
1029
1027
1025
1026
1023
1018
1009
1004
998
998
997
989
982
976
974
975
976
970
966
962
961
963
964
961
959
957
956
957
959
960
956
953
954
955
958
955
956
952
950
953
955
952
951
948
950
951
955
952
951
948
949
952
955
953
950
948
950
951
953
954
952
950
949
951
951
950
947
948
949
952
953
952
950
946
947
950
953
950
949
948
948
950
952
952
947
949
946
948
951
948
946
943
944
948
951
951
946
945
946
948
949
951
950
947
947
951
954
952
951
952
952
959
960
959
956
956
956
957
963
962
961
962
964
966
968
964
961
958
957
957
959
958
954
951
950
953
951
949
947
948
946
945
949
947
944
939
940
939
941
942
940
939
940
942
945
943
941
937
939
943
944
943
942
939
938
938
942
942
939
936
939
941
945
941
939
938
938
943
944
944
943
941
941
944
946
946
945
945
949
956
963
967
968
977
990
1010
1028
1043
1049
1052
1049
1037
1026
1005
992
992
1006
1030
1062
1089
1114
1131
1144
1150
1140
1121
1099
1080
1059
1043
1024
1007
983
959
939
927
916
909
900
902
907
913
920
924
922
923
927
930
934
930
928
926
929
931
930
932
929
929
928
932
935
933
929
932
933
935
937
936
935
932
936
937
939
938
941
941
944
948
950
949
950
952
949
957
961
961
963
959
965
972
974
977
976
977
981
987
989
995
996
996
1000
1006
1009
1010
1009
1010
1015
1021
1026
1026
1026
1031
1033
1037
1043
1040
1035
1035
1032
1031
1031
1028
1020
1015
1009
1007
1003
1000
992
987
984
986
987
982
980
975
974
973
977
975
973
970
972
973
977
974
972
970
969
974
974
973
972
970
971
972
975
975
973
970
970
974
974
973
973
969
971
976
978
978
973
974
975
976
980
977
972
972
974
976
979
978
976
973
973
974
976
977
976
971
975
974
978
978
975
970
972
974
978
977
972
969
971
974
975
974
972
971
968
972
975
976
972
969
970
973
974
974
971
967
967
971
973
973
973
971
974
977
982
981
979
976
979
979
985
984
984
984
986
989
988
987
985
978
981
983
985
985
978
976
971
978
975
974
975
972
972
972
975
971
968
968
965
968
968
965
963
962
965
967
965
962
962
961
961
962
967
965
962
958
961
962
965
962
960
958
960
961
964
964
960
960
962
964
967
967
965
961
963
966
969
969
966
969
975
980
989
993
1005
1021
1036
1054
1067
1075
1072
1063
1049
1039
1034
1036
1048
1069
1095
1124
1151
1174
1188
1189
1182
1164
1142
1123
1099
1073
1051
1030
1003
977
955
936
924
921
922
925
928
933
940
947
949
949
948
944
948
948
951
950
949
948
949
953
954
954
950
949
948
951
956
953
950
948
947
954
954
955
951
950
952
959
960
963
961
957
960
966
970
970
968
966
969
972
976
978
975
975
977
985
989
989
990
990
992
996
1003
1005
1004
1004
1007
1011
1018
1020
1019
1020
1025
1031
1035
1037
1037
1032
1030
1028
1025
1024
1016
1012
1010
1006
1004
999
993
989
988
985
987
981
980
975
973
978
978
978
972
969
969
971
974
973
968
966
967
966
970
972
966
962
962
966
970
969
969
963
966
969
970
972
969
967
966
967
971
971
969
968
967
969
971
971
970
967
968
968
972
971
967
965
965
967
969
969
968
965
965
968
969
968
965
963
964
966
969
968
964
961
963
966
966
966
962
963
962
965
968
965
965
964
963
963
963
966
964
964
962
967
967
968
964
966
965
969
973
974
976
973
972
975
979
976
976
975
977
982
988
988
984
981
979
980
982
978
979
974
971
973
976
973
971
966
966
965
968
967
965
962
963
964
966
963
963
957
958
958
961
963
960
956
956
957
960
960
958
955
954
958
961
957
956
948
953
955
957
956
957
955
954
956
960
958
958
956
954
959
963
962
959
960
959
965
969
976
975
981
985
999
1015
1029
1043
1049
1057
1060
1058
1044
1027
1015
1016
1031
1053
1083
1107
1131
1153
1169
1175
1161
1138
1113
1093
1078
1055
1032
1002
971
948
931
922
914
907
905
913
921
930
937
939
939
943
946
946
949
946
944
944
947
952
951
949
948
945
949
949
947
951
948
948
951
954
955
953
954
954
957
961
960
961
958
959
962
968
968
965
967
966
972
975
976
978
974
977
982
985
987
990
991
992
996
1004
1005
1004
1005
1007
1011
1017
1022
1021
1020
1025
1031
1036
1036
1034
1032
1031
1033
1033
1030
1026
1019
1013
1011
1009
1003
997
989
987
987
986
984
979
976
975
975
974
975
973
969
969
970
970
969
967
964
964
966
970
968
966
962
962
963
969
971
969
962
964
965
967
970
966
963
964
966
969
964
961
963
964
967
968
966
965
963
965
966
969
966
963
960
958
962
969
966
964
962
962
963
964
964
964
961
958
963
966
966
963
960
962
962
964
964
961
959
962
961
964
963
960
955
958
960
966
966
962
960
960
960
965
964
966
964
966
967
973
976
971
969
969
972
975
978
977
976
979
980
982
983
979
976
973
975
979
972
971
970
968
968
967
970
967
963
963
966
967
965
964
960
960
962
963
961
956
953
953
954
960
960
958
954
955
953
956
957
957
954
954
956
957
958
957
954
952
955
956
957
954
954
953
954
959
955
954
951
953
959
962
959
956
958
958
962
965
971
971
975
979
990
1004
1017
1030
1039
1047
1057
1059
1056
1042
1026
1014
1014
1025
1038
1058
1082
1105
1132
1153
1165
1165
1153
1133
1115
1099
1085
1062
1039
1018
998
975
953
933
920
911
908
911
918
920
926
932
942
947
949
948
944
947
948
951
953
952
948
950
949
956
954
950
951
952
951
956
958
955
952
955
959
962
963
961
958
961
962
967
967
966
965
965
971
972
972
969
970
975
977
982
983
983
982
984
989
993
993
991
992
993
998
1008
1008
1007
1008
1011
1012
1021
1022
1023
1022
1025
1025
1030
1037
1039
1037
1039
1043
1047
1046
1045
1043
1038
1037
1033
1032
1026
1018
1014
1013
1008
1009
998
995
991
990
995
990
985
983
982
982
983
983
982
979
977
978
981
978
978
975
974
976
978
978
976
972
973
975
978
978
976
972
969
974
978
978
977
973
971
971
976
976
973
974
976
976
978
977
978
976
975
974
978
980
977
975
971
974
981
978
977
975
975
974
979
978
974
972
973
970
976
975
974
967
971
973
977
976
975
973
971
973
975
972
973
970
970
973
976
976
974
969
969
974
976
975
971
970
969
973
976
979
975
977
977
981
988
985
982
981
981
985
989
991
989
993
990
993
997
997
993
993
990
992
993
993
991
985
983
986
985
983
982
978
977
980
983
981
978
976
975
976
976
981
972
968
967
972
976
977
973
973
972
971
971
973
971
969
968
969
974
972
969
967
967
969
973
972
971
967
967
970
974
973
970
967
969
970
973
970
972
969
969
971
977
979
981
982
986
993
1002
1014
1023
1034
1047
1063
1073
1076
1068
1058
1041
1028
1025
1034
1046
1068
1091
1122
1149
1165
1177
1177
1165
1146
1128
1104
1087
1062
1037
1015
994
968
948
933
919
915
919
922
925
930
931
941
949
952
953
951
953
956
960
958
958
955
954
958
961
958
959
958
958
961
963
962
960
959
958
962
963
963
965
962
965
967
971
972
971
968
970
973
975
976
978
975
976
981
987
987
987
986
985
990
995
998
1001
998
1003
1005
1010
1013
1014
1013
1013
1018
1025
1030
1028
1026
1027
1028
1035
1038
1040
1039
1042
1045
1051
1051
1047
1043
1043
1046
1045
1041
1037
1029
1022
1021
1019
1013
1006
1001
999
995
994
991
988
982
980
982
984
982
980
977
975
972
978
976
973
972
970
972
976
976
974
970
971
973
976
976
974
972
971
971
976
975
973
974
974
974
977
974
973
971
971
974
976
976
973
970
969
970
975
972
970
968
970
973
974
973
971
965
964
971
973
972
969
967
966
971
973
972
969
965
968
969
973
973
969
969
966
971
971
972
970
967
966
969
971
970
969
965
964
966
972
973
971
967
967
973
980
980
975
975
977
976
980
981
982
981
981
984
987
987
987
985
982
981
984
983
982
978
977
978
982
979
978
971
973
971
971
970
972
966
962
964
968
964
962
959
958
958
966
969
968
960
958
959
963
965
964
961
960
963
964
965
958
954
960
961
966
965
963
961
961
962
967
965
963
961
963
965
969
967
966
966
966
968
975
982
984
988
997
1012
1030
1046
1061
1070
1079
1082
1077
1062
1044
1026
1018
1030
1047
1069
1094
1114
1136
1154
1169
1168
1158
1139
1119
1105
1092
1076
1053
1031
1016
1000
984
967
948
937
928
930
934
939
940
943
948
952
956
954
955
952
953
952
957
958
958
954
954
957
957
958
958
952
952
957
961
962
958
956
956
962
963
962
964
962
960
962
969
968
969
967
968
972
977
978
977
978
980
981
987
989
989
986
988
996
1001
999
1001
1003
1003
1003
1012
1015
1016
1017
1017
1024
1029
1029
1031
1028
1034
1037
1044
1047
1046
1045
1048
1050
1053
1054
1053
1051
1047
1045
1046
1042
1033
1026
1022
1019
1020
1015
1009
1004
1001
1000
1002
1000
997
995
990
990
992
991
987
987
985
985
989
988
986
985
982
985
988
989
988
983
982
986
990
990
985
984
984
988
989
991
989
986
983
989
993
993
990
987
989
991
995
994
992
992
990
993
996
995
991
988
989
994
996
995
994
991
991
990
996
997
993
991
991
992
993
993
994
992
989
993
997
997
995
990
990
992
994
993
993
989
988
991
992
990
984
987
988
987
992
991
988
987
986
989
991
992
993
988
994
999
1002
1003
1000
999
1001
1005
1006
1010
1008
1005
1008
1011
1013
1014
1010
1007
1004
1002
1011
1008
1005
1001
1000
1002
1003
1000
998
997
994
993
997
997
992
992
991
992
991
991
989
985
990
991
994
992
986
989
987
989
991
990
990
988
987
989
992
990
987
985
983
990
989
992
989
988
988
991
992
994
989
989
990
996
1004
1005
1009
1018
1032
1051
1076
1090
1096
1093
1081
1067
1060
1058
1067
1078
1097
1125
1155
1178
1190
1202
1206
1197
1181
1161
1142
1124
1106
1088
1067
1042
1018
995
976
965
958
953
951
952
956
961
966
972
973
973
973
975
978
978
977
975
976
979
982
980
982
978
979
981
984
984
982
979
976
978
981
983
984
982
979
984
987
986
988
987
988
989
994
994
992
993
994
998
1002
999
1001
1000
1002
1004
1009
1011
1010
1009
1010
1013
1016
1023
1021
1023
1025
1030
1032
1035
1036
1034
1035
1038
1045
1047
1049
1048
1047
1056
1058
1064
1063
1062
1060
1065
1069
1067
1065
1058
1053
1052
1050
1046
1039
1032
1028
1028
1027
1025
1019
1016
1013
1012
1015
1013
1009
1005
1002
1006
1009
1006
1005
1000
1001
1002
1003
1003
1000
998
996
1000
1004
1003
1000
997
996
1001
1003
1003
1003
998
997
1002
1004
1002
1004
998
1001
1004
1005
1006
1002
1001
999
1002
1006
1004
1004
1001
999
1003
1007
1003
1003
1000
999
1000
1003
1004
1002
996
999
1001
1005
1003
1001
999
997
999
1001
1001
999
999
999
1002
1003
1003
1000
998
997
1000
1000
1004
1000
999
1000
1000
1000
1002
1001
997
998
1000
1003
1002
1000
997
997
1000
1002
1005
1005
1000
1006
1011
1012
1013
1011
1006
1006
1010
1016
1017
1019
1016
1017
1017
1020
1018
1016
1013
1011
1014
1016
1015
1012
1006
1004
1004
1007
1007
1003
1002
1002
1003
1005
1005
1004
1000
1001
1000
1002
1002
998
999
998
1001
1004
1001
1000
995
995
998
998
999
995
993
996
996
998
997
994
990
995
996
999
1001
997
995
995
997
1000
998
999
994
993
997
1000
1000
1000
998
998
1004
1007
1013
1016
1017
1022
1037
1051
1066
1078
1084
1088
1090
1084
1069
1058
1048
1053
1069
1098
1121
1147
1166
1186
1199
1204
1193
1172
1146
1124
1111
1094
1069
1044
1012
990
973
962
952
949
946
952
962
972
979
983
983
982
985
988
989
987
984
985
989
991
991
990
986
987
989
992
991
988
987
989
992
994
994
995
992
993
994
998
998
995
996
997
999
1003
1004
1005
1002
1003
1006
1008
1014
1014
1011
1010
1016
1019
1023
1024
1025
1024
1032
1036
1038
1038
1036
1041
1044
1048
1050
1051
1051
1053
1058
1064
1068
1069
1071
1072
1074
1077
1077
1073
1068
1060
1063
1060
1054
1045
1037
1035
1034
1031
1032
1026
1021
1018
1018
1019
1017
1014
1008
1009
1010
1008
1010
1007
1007
1003
1003
1005
1008
1004
1005
1002
1001
1004
1005
1006
1002
1002
1002
1003
1004
1004
1002
1001
1005
1004
1003
1006
1004
1001
999
1000
1003
1004
999
999
1000
1002
1004
1001
999
998
999
1000
999
1001
996
994
998
1000
1000
1000
999
996
999
1001
1000
998
993
997
997
998
999
998
994
993
995
996
996
992
995
990
992
997
997
995
993
992
994
995
995
994
990
992
991
997
997
996
995
994
996
1002
1001
1003
999
1000
1003
1006
1009
1010
1006
1007
1010
1014
1011
1008
1006
1004
1006
1006
1006
1001
998
997
999
998
996
997
992
988
993
996
993
993
987
987
989
988
986
984
981
981
984
988
984
982
981
980
982
985
986
984
979
978
978
983
985
983
978
977
980
983
985
980
980
980
980
985
984
982
976
978
982
986
985
985
982
983
985
987
991
992
995
997
1004
1014
1023
1038
1051
1065
1076
1081
1081
1070
1048
1032
1022
1029
1047
1071
1099
1125
1154
1173
1185
1181
1167
1144
1123
1105
1086
1061
1036
1011
989
972
956
942
936
932
935
945
954
958
961
965
966
970
969
965
966
964
968
971
972
967
964
967
968
972
974
972
970
967
971
974
973
975
972
974
974
977
980
980
979
979
979
982
987
985
985
984
987
991
993
995
994
994
1000
1005
1008
1009
1007
1007
1015
1017
1023
1025
1025
1026
1034
1038
1041
1040
1040
1041
1045
1052
1057
1055
1055
1058
1058
1059
1062
1059
1051
1048
1045
1043
1038
1031
1024
1019
1018
1019
1013
1008
1003
1001
1001
1003
1004
998
997
995
994
996
994
993
988
991
990
991
993
990
990
985
989
994
993
991
989
986
986
993
995
993
990
991
993
996
996
994
992
990
992
997
998
995
992
992
997
998
995
995
991
994
994
999
997
994
993
991
995
996
998
995
993
994
995
994
1000
995
996
992
997
998
995
995
992
988
992
997
995
994
991
992
993
993
997
993
990
988
994
996
998
998
995
996
1000
1002
1001
1003
1000
1001
1005
1006
1008
1008
1008
1009
1010
1012
1011
1008
1005
1003
1003
1003
1005
1002
996
996
996
997
999
998
995
992
993
994
994
992
987
986
988
988
988
989
988
986
987
988
989
987
985
981
987
987
989
987
986
984
985
988
986
987
983
983
986
990
989
985
985
980
984
987
987
987
985
984
987
987
992
992
989
990
992
996
1000
1001
1002
1001
1010
1022
1033
1046
1059
1068
1079
1086
1080
1071
1054
1040
1040
1049
1067
1088
1111
1134
1160
1181
1196
1199
1187
1163
1143
1127
1110
1089
1063
1042
1018
995
974
961
945
938
940
947
954
962
967
974
976
980
981
979
977
977
978
981
983
983
979
979
981
981
985
983
982
980
981
986
988
986
981
979
983
987
990
989
988
988
989
993
995
992
994
991
996
1000
1002
1000
997
999
1003
1006
1011
1014
1011
1014
1017
1022
1026
1026
1027
1027
1031
1035
1039
1041
1039
1041
1048
1053
1059
1058
1059
1060
1065
1066
1066
1060
1058
1049
1052
1048
1044
1039
1033
1024
1024
1023
1020
1017
1011
1007
1006
1006
1007
1004
999
997
1000
1001
1004
998
996
994
996
997
1000
996
994
994
996
995
996
995
994
992
994
995
999
996
993
991
996
996
998
996
993
992
992
998
996
994
993
991
990
995
993
992
991
990
993
994
994
991
988
988
991
993
993
992
986
987
989
991
994
990
990
989
992
991
995
990
988
987
985
991
993
990
987
987
986
991
991
992
987
988
990
994
994
994
995
995
998
1000
1002
1000
998
1000
999
1005
1008
1008
1004
1000
1005
1007
1005
1000
1001
1000
1000
1002
1000
998
993
992
993
996
995
993
990
990
992
992
991
991
987
983
984
984
986
984
983
982
984
986
985
983
980
977
983
983
984
980
978
974
978
981
982
981
978
975
979
981
983
982
982
980
983
986
986
985
982
978
982
986
986
988
985
984
985
984
988
987
986
988
989
996
999
1002
1003
1013
1023
1039
1051
1065
1068
1071
1072
1068
1056
1041
1029
1030
1042
1063
1083
1107
1129
1149
1167
1181
1188
1179
1157
1136
1117
1099
1082
1060
1036
1011
988
970
954
941
930
929
933
938
946
950
956
960
967
971
973
972
969
966
970
973
973
974
969
969
971
974
975
974
972
973
974
976
978
976
976
973
978
980
983
979
979
979
980
982
986
983
982
982
985
988
990
987
989
990
992
999
999
998
997
999
1001
1009
1009
1008
1007
1010
1011
1020
1020
1023
1022
1024
1028
1034
1036
1037
1035
1037
1041
1046
1048
1051
1049
1052
1057
1059
1063
1063
1060
1060
1060
1060
1055
1054
1048
1042
1041
1039
1032
1028
1021
1018
1015
1017
1012
1009
1005
999
1001
1003
1004
998
994
994
995
996
997
994
992
990
990
992
994
992
989
988
988
989
993
990
989
986
989
990
993
990
990
988
989
991
994
992
988
987
988
990
992
991
988
984
989
990
989
990
984
984
985
989
990
988
985
987
985
985
989
989
985
985
986
989
987
985
983
983
985
988
989
986
984
983
986
987
988
986
982
979
980
983
984
984
983
978
983
987
989
985
982
981
981
983
987
986
986
983
985
987
988
988
989
990
989
994
995
994
991
992
997
1001
1005
1004
1001
999
1000
1002
1003
999
994
992
992
996
994
993
989
988
986
987
990
986
982
983
983
985
987
986
982
978
976
980
982
981
977
974
974
977
980
977
976
972
976
976
978
974
973
974
973
977
978
977
973
972
973
977
978
975
975
974
974
979
980
980
976
976
976
980
981
980
976
977
980
984
985
986
983
986
989
996
1001
1005
1010
1021
1032
1048
1058
1065
1062
1062
1055
1043
1031
1023
1023
1035
1057
1082
1108
1132
1150
1164
1174
1177
1169
1148
1125
1103
1087
1072
1051
1026
998
971
956
946
935
928
923
923
930
943
949
954
960
961
968
968
969
970
970
966
969
972
971
976
973
970
973
975
978
977
973
971
973
976
979
976
974
973
975
981
982
982
978
980
983
987
987
987
984
987
987
992
994
991
991
990
997
1001
1003
1003
1001
1002
1007
1011
1014
1014
1014
1014
1021
1024
1027
1028
1028
1030
1032
1039
1041
1043
1041
1043
1045
1052
1057
1056
1053
1054
1061
1066
1067
1064
1061
1062
1061
1060
1058
1050
1045
1042
1037
1035
1029
1025
1019
1015
1012
1011
1012
1008
1001
994
997
999
998
994
992
991
988
991
993
991
987
987
989
989
991
990
987
986
986
987
988
989
985
982
985
988
989
987
983
983
988
987
988
987
985
983
986
989
990
988
985
982
986
988
987
983
983
978
984
984
984
982
981
978
982
984
986
985
982
979
983
984
985
984
981
980
982
982
983
983
982
979
981
984
985
981
979
977
978
982
982
980
976
975
975
978
977
981
977
976
976
979
980
977
977
973
979
984
984
986
983
983
985
986
990
991
987
987
990
994
997
995
995
997
994
997
997
993
990
988
992
994
992
990
985
985
983
984
985
981
979
977
977
980
980
978
974
971
970
973
972
974
972
972
975
977
975
972
971
969
970
972
970
973
968
969
969
971
974
972
969
965
967
970
970
969
969
966
969
971
972
969
968
969
968
972
969
973
969
970
970
974
974
976
973
974
979
985
986
992
993
1001
1017
1033
1049
1059
1062
1066
1066
1061
1049
1028
1007
1000
1013
1034
1059
1085
1108
1128
1148
1164
1167
1159
1144
1119
1101
1082
1060
1040
1016
991
973
957
946
938
927
921
922
927
932
936
942
946
951
958
960
957
958
958
955
959
961
959
958
956
958
957
961
961
959
960
965
965
967
965
961
959
964
965
967
968
967
963
968
972
974
972
973
972
974
981
983
982
981
980
978
985
988
989
988
988
991
996
998
1002
1004
1004
1005
1014
1019
1016
1018
1018
1022
1028
1030
1031
1033
1034
1037
1041
1044
1046
1047
1048
1050
1056
1056
1058
1054
1054
1057
1059
1058
1054
1048
1044
1041
1041
1036
1030
1025
1020
1016
1013
1007
1005
1000
999
998
997
997
994
989
985
987
989
987
987
984
983
984
986
985
986
983
980
982
982
985
984
982
980
983
984
986
983
982
978
983
983
986
984
984
983
984
987
987
988
986
981
984
985
987
988
983
977
982
984
987
986
986
985
983
985
988
985
983
982
984
985
987
983
982
982
983
985
989
986
979
980
983
986
983
982
979
978
980
984
982
982
983
980
981
983
984
981
981
977
981
982
984
985
982
980
984
988
988
990
988
989
989
992
996
993
994
992
995
998
1003
1001
999
997
1001
1000
1000
998
993
991
991
995
993
990
989
982
984
987
987
986
980
980
981
982
980
979
978
978
978
977
979
976
974
975
974
976
981
976
974
971
973
977
980
975
973
973
974
979
980
980
976
973
977
978
980
980
976
976
976
980
984
981
979
979
983
987
993
994
995
998
1008
1020
1034
1048
1054
1061
1071
1072
1070
1055
1040
1031
1035
1049
1072
1096
1118
1145
1164
1180
1187
1176
1154
1132
1111
1099
1083
1060
1031
1006
984
967
956
943
936
933
932
941
948
949
956
962
967
970
972
970
969
966
967
971
975
972
970
968
972
973
974
974
971
974
974
978
980
978
978
975
976
981
983
981
980
978
983
988
988
989
987
986
990
992
995
995
992
991
997
1001
1005
1005
1004
1006
1010
1015
1019
1020
1017
1022
1024
1028
1031
1032
1031
1031
1035
1038
1041
1042
1045
1045
1049
1054
1060
1060
1060
1061
1062
1067
1069
1063
1059
1056
1055
1053
1049
1043
1037
1032
1031
1028
1027
1021
1017
1012
1012
1009
1010
1009
1004
1001
1000
1003
1004
1001
999
996
994
999
1001
999
994
996
995
997
1001
998
994
993
998
1000
1003
1001
999
997
999
1000
1002
1002
998
998
1000
1001
1004
1003
999
996
997
999
1002
1002
999
997
998
1000
1002
1000
996
993
998
1000
999
998
997
995
997
999
1000
997
996
995
996
997
999
994
994
991
994
996
996
995
994
992
991
998
998
996
993
990
993
994
995
993
993
991
990
993
994
993
991
989
987
990
995
995
994
994
996
1001
1003
1003
1003
997
1002
1007
1008
1008
1007
1004
1008
1010
1011
1008
1003
1000
1003
1004
1005
1004
999
996
996
997
998
996
993
991
990
993
994
992
989
986
985
986
987
984
981
981
983
986
988
984
981
976
981
983
984
982
979
980
978
984
984
983
981
980
980
983
984
983
981
980
980
983
985
983
981
978
982
982
982
983
981
979
981
985
985
986
985
987
991
998
1005
1011
1019
1031
1048
1063
1075
1077
1073
1060
1046
1037
1037
1047
1063
1087
1121
1151
1174
1187
1192
1186
1170
1148
1129
1108
1086
1064
1038
1013
988
967
948
935
930
929
935
939
947
951
959
967
971
972
970
968
968
971
974
974
969
968
972
974
977
975
974
973
975
978
979
976
976
977
977
978
982
981
980
980
981
985
989
988
985
985
988
993
994
995
994
994
996
1000
1002
1005
1006
1006
1008
1013
1016
1019
1019
1020
1023
1027
1031
1034
1032
1032
1038
1041
1046
1047
1047
1048
1053
1058
1059
1061
1061
1058
1059
1059
1057
1055
1049
1043
1040
1035
1034
1029
1023
1018
1014
1015
1014
1009
1004
1000
998
1002
1002
998
996
993
994
993
995
995
991
989
989
991
992
992
990
989
986
992
992
991
988
988
990
991
993
992
989
989
990
992
992
994
991
988
991
992
995
994
990
988
989
990
992
993
991
983
988
990
992
991
987
987
986
991
993
989
989
987
987
989
991
988
986
985
983
989
988
985
981
979
980
983
987
986
984
984
984
985
988
986
982
981
984
986
988
988
984
981
982
983
987
983
982
977
982
987
989
988
990
990
989
994
995
995
993
994
995
997
1002
1002
1001
998
994
998
999
994
993
989
992
994
993
990
986
982
982
983
986
985
979
979
978
980
981
977
973
971
975
977
981
976
974
969
972
972
974
972
971
972
970
974
975
975
969
970
972
973
977
972
970
967
969
974
973
972
973
971
971
973
975
973
972
970
972
973
975
975
974
974
977
981
986
989
991
992
1005
1020
1038
1050
1060
1063
1065
1065
1055
1034
1016
1010
1021
1045
1072
1103
1130
1148
1167
1176
1174
1155
1129
1103
1077
1054
1032
1002
975
954
945
935
932
927
925
931
939
948
955
956
956
953
955
960
963
964
961
959
958
963
965
963
960
962
961
963
967
966
963
962
962
966
969
967
966
964
963
970
973
971
972
968
974
981
983
984
982
981
985
989
991
992
990
992
995
1000
1003
1007
1006
1007
1010
1017
1021
1023
1022
1021
1025
1029
1034
1037
1034
1035
1039
1044
1046
1050
1049
1051
1053
1058
1061
1057
1055
1050
1050
1046
1044
1038
1031
1025
1022
1021
1019
1014
1008
1003
999
1001
1000
997
992
987
992
994
989
987
987
984
986
989
988
983
983
981
984
987
987
985
984
978
980
984
987
986
984
982
983
985
988
985
984
983
984
988
990
989
986
986
985
986
989
990
988
985
984
985
989
988
987
984
985
987
991
988
984
984
985
987
989
990
984
984
985
989
990
988
986
984
986
987
990
985
984
984
985
986
989
991
987
984
982
985
987
987
984
984
987
989
991
991
990
987
992
994
996
995
993
993
996
997
1003
1004
1002
1003
1004
1005
1004
1002
999
996
998
1001
998
997
994
991
992
992
992
993
987
986
986
988
989
986
982
979
980
980
981
983
981
982
982
983
982
980
980
977
976
978
983
983
975
975
977
978
980
980
979
976
976
982
981
980
975
975
975
979
982
981
978
978
981
981
984
982
980
978
979
983
988
990
991
992
999
1006
1016
1027
1035
1047
1060
1072
1079
1073
1061
1045
1031
1031
1045
1058
1078
1103
1127
1151
1170
1174
1164
1142
1118
1103
1088
1065
1041
1018
994
980
966
951
942
935
937
941
949
954
957
964
967
970
973
971
969
966
965
970
973
973
972
969
971
972
974
974
969
968
971
974
975
976
974
971
974
977
981
980
978
975
978
981
990
989
986
989
989
994
995
999
994
992
1000
1003
1008
1008
1010
1009
1014
1016
1022
1023
1024
1020
1027
1031
1037
1037
1036
1037
1040
1046
1050
1054
1053
1054
1055
1058
1060
1058
1055
1051
1050
1048
1044
1039
1035
1027
1027
1022
1020
1018
1012
1008
1006
1005
1005
1004
998
996
994
998
995
997
992
988
987
990
995
995
989
987
986
990
993
992
988
984
985
990
991
989
986
985
986
990
993
993
988
987
986
990
994
993
991
990
989
991
996
993
992
989
989
991
993
993
990
987
987
990
991
992
989
988
988
990
992
992
987
985
986
990
989
986
985
985
986
988
989
989
985
983
982
985
987
988
985
981
981
985
987
986
984
982
983
982
987
984
984
982
985
985
989
988
986
988
989
995
998
997
994
993
993
997
1000
1001
998
997
1002
1006
1008
1004
1002
999
1000
1002
1002
1002
996
994
993
994
994
993
990
988
987
992
992
990
988
986
985
988
989
985
981
979
977
985
986
984
982
978
978
982
983
982
978
977
978
982
981
979
978
975
976
975
983
981
979
978
979
979
981
981
978
976
977
981
982
982
981
979
980
982
982
983
984
980
985
988
994
1000
1002
1009
1019
1034
1050
1060
1068
1073
1074
1072
1064
1050
1039
1034
1042
1063
1087
1114
1139
1157
1175
1188
1189
1172
1148
1124
1108
1093
1075
1048
1020
989
972
959
951
944
934
934
935
943
950
955
959
962
965
967
972
972
968
969
969
972
975
975
973
969
970
974
975
975
973
970
971
972
976
976
973
972
974
976
980
981
976
977
979
982
987
987
985
982
984
988
990
991
990
990
992
999
999
999
997
997
998
1006
1010
1009
1010
1009
1013
1017
1018
1023
1024
1023
1025
1029
1036
1035
1034
1033
1036
1042
1046
1047
1049
1048
1053
1056
1061
1061
1058
1056
1057
1057
1060
1053
1049
1044
1041
1040
1039
1031
1029
1019
1016
1017
1017
1012
1007
1004
1002
1002
1005
1002
994
994
995
998
997
993
992
990
988
993
995
994
991
990
989
994
995
993
990
989
990
992
992
992
991
987
991
994
997
993
992
989
990
989
995
995
990
987
988
992
995
994
993
988
989
991
995
991
985
986
990
991
990
991
988
984
986
989
991
992
991
989
989
991
994
990
986
983
986
989
991
992
990
985
983
988
991
989
986
986
989
986
993
992
989
987
986
990
992
991
989
985
987
990
991
990
990
984
986
991
995
996
996
995
995
998
998
998
994
994
999
1003
1003
1007
1004
1004
1003
1001
1005
1002
1002
998
995
995
995
993
992
988
987
987
990
989
986
986
983
988
989
984
981
979
977
979
981
978
977
976
977
979
981
980
976
975
975
977
981
976
977
975
974
976
979
978
977
976
975
977
980
978
976
976
975
977
979
980
977
976
975
978
980
980
977
977
979
979
985
986
988
990
993
1004
1015
1024
1035
1048
1063
1069
1080
1075
1060
1042
1023
1011
1015
1027
1051
1080
1113
1141
1162
1173
1172
1159
1139
1119
1101
1078
1055
1032
1010
986
968
951
935
929
921
921
926
933
937
943
952
958
960
963
959
962
961
965
965
967
965
964
961
964
968
967
966
962
962
966
969
970
968
967
965
973
974
974
973
970
971
971
976
977
977
978
980
984
986
985
983
982
986
992
993
994
995
996
997
1001
1006
1008
1005
1008
1012
1019
1022
1022
1021
1022
1028
1031
1036
1038
1035
1037
1040
1045
1049
1051
1049
1050
1052
1055
1059
1060
1058
1054
1049
1052
1051
1044
1037
1030
1029
1024
1022
1016
1009
1007
1003
1001
1003
999
994
990
987
990
991
989
985
980
981
984
986
984
982
977
979
983
984
983
981
977
978
981
981
982
979
977
977
980
984
982
976
976
976
979
983
982
980
978
980
983
984
982
981
978
979
983
985
985
981
980
981
982
984
985
980
980
977
982
983
979
979
979
979
980
983
982
978
978
980
980
987
983
982
980
982
983
984
982
981
979
978
982
985
984
983
979
981
982
986
983
982
978
979
983
986
989
986
986
987
988
994
993
992
989
990
996
999
1000
998
998
999
1003
1006
1005
1000
995
995
998
1001
999
997
994
992
993
995
992
991
988
989
990
992
990
986
982
981
982
984
983
978
979
979
983
984
985
983
980
978
981
982
982
982
979
980
983
984
985
982
978
981
979
986
983
980
979
981
983
984
985
983
981
984
986
992
989
984
982
980
984
987
990
988
988
988
993
997
1004
1006
1013
1021
1036
1049
1060
1070
1075
1077
1082
1074
1057
1042
1030
1030
1041
1058
1081
1103
1125
1145
1163
1176
1170
1150
1128
1108
1094
1078
1055
1033
1010
989
971
961
949
941
934
940
945
955
963
965
969
971
978
983
981
980
977
977
979
981
981
980
978
977
980
985
984
982
979
975
983
986
983
985
983
982
988
991
988
988
984
986
989
995
997
993
993
999
1002
1004
1004
1004
1003
1005
1009
1014
1014
1013
1014
1019
1023
1026
1027
1028
1028
1030
1035
1041
1039
1040
1040
1042
1048
1053
1050
1051
1054
1056
1059
1067
1065
1064
1063
1065
1069
1072
1068
1067
1061
1059
1056
1056
1048
1041
1037
1034
1032
1026
1024
1016
1014
1011
1011
1010
1008
1004
998
998
1002
1004
999
997
993
993
995
996
997
994
991
988
990
994
994
993
990
990
993
997
995
991
992
991
994
997
994
994
992
994
995
999
994
995
990
993
994
997
996
994
992
991
995
996
996
990
989
991
993
995
994
992
989
992
992
993
993
989
988
987
989
991
990
986
985
984
990
991
988
986
985
985
986
988
986
988
982
982
985
988
988
988
985
987
990
991
996
993
986
993
996
998
998
997
993
995
1000
1004
1002
1002
1002
1001
1003
1005
1002
1000
997
996
996
998
995
991
990
987
988
990
990
987
985
984
984
985
987
984
979
979
979
979
978
978
979
978
981
981
980
977
972
975
976
976
977
976
971
972
975
977
974
974
971
971
977
973
976
974
972
975
974
976
977
975
973
972
973
979
978
973
974
975
979
981
983
983
985
992
998
1010
1021
1032
1042
1053
1058
1058
1049
1029
1011
1000
1006
1019
1041
1066
1094
1121
1140
1157
1159
1149
1122
1098
1083
1065
1047
1020
995
971
951
938
923
915
910
911
917
929
936
943
946
954
960
964
964
963
957
958
966
968
968
964
963
965
969
973
972
970
969
970
971
974
972
971
967
968
972
977
977
975
973
975
980
983
982
985
982
982
989
993
994
994
992
994
997
1001
1003
1003
1001
1007
1013
1014
1018
1020
1019
1020
1025
1030
1033
1031
1032
1034
1037
1041
1042
1042
1044
1046
1050
1052
1053
1052
1050
1052
1055
1060
1052
1049
1043
1040
1037
1036
1030
1024
1017
1013
1013
1011
1006
1002
996
993
995
995
994
989
985
986
987
988
986
985
980
980
982
986
982
982
979
977
983
984
983
981
977
978
981
984
982
980
979
979
980
983
984
981
979
978
980
982
982
979
980
980
982
984
983
981
980
978
981
985
984
980
979
979
979
982
980
979
974
975
977
979
979
977
975
973
975
978
976
972
971
972
975
978
976
975
972
970
972
976
976
972
971
971
973
975
974
972
968
968
971
975
976
970
969
971
971
977
978
976
974
974
977
981
982
979
976
978
982
985
985
983
983
984
985
986
985
982
975
980
983
982
978
974
972
972
972
977
971
970
967
965
968
967
967
965
962
963
965
963
962
962
960
960
965
962
961
959
956
956
957
962
958
956
951
953
954
959
956
955
955
953
959
962
961
959
954
955
958
960
958
956
955
954
956
959
956
954
954
957
957
962
964
962
967
973
981
992
1003
1016
1027
1038
1046
1049
1040
1025
1004
987
979
985
998
1022
1049
1081
1109
1129
1140
1142
1127
1111
1091
1074
1051
1027
1002
979
958
943
928
915
903
904
906
912
915
920
923
930
938
942
944
944
939
938
941
944
943
943
943
944
946
950
949
947
943
944
946
950
948
948
942
949
948
953
952
954
954
954
957
959
961
958
956
963
965
970
972
970
969
971
974
978
980
979
981
985
989
993
997
998
998
999
1005
1011
1014
1013
1011
1015
1019
1022
1024
1024
1025
1028
1032
1037
1038
1039
1035
1037
1039
1036
1034
1026
1021
1015
1012
1010
1005
998
990
987
990
986
984
979
973
973
973
975
971
969
965
963
964
966
967
963
962
962
963
966
966
961
960
958
962
966
963
961
960
963
963
962
967
965
958
958
963
968
967
965
963
962
965
969
970
964
963
962
964
968
965
968
964
963
965
967
969
965
962
963
966
967
966
964
958
959
965
965
964
964
962
963
965
969
967
961
960
961
965
965
965
960
960
958
962
965
965
964
962
966
965
973
972
971
969
968
972
974
977
977
975
975
976
985
981
980
978
978
980
982
982
976
971
973
972
974
975
973
969
969
969
969
969
963
960
961
963
967
961
958
955
958
963
968
966
964
959
959
960
963
960
960
956
956
959
959
962
959
957
957
962
963
963
961
957
961
963
965
967
963
960
960
965
965
968
964
964
964
969
971
971
971
970
972
979
988
991
995
1001
1020
1034
1047
1057
1063
1066
1062
1052
1041
1023
1009
1008
1016
1034
1057
1080
1101
1119
1134
1142
1137
1122
1099
1079
1065
1049
1037
1023
1004
985
967
955
946
938
933
931
933
938
953
956
957
957
959
962
964
963
962
961
962
963
968
967
968
963
963
966
970
970
966
964
966
970
970
971
969
968
969
973
977
978
974
973
975
976
984
984
984
983
982
988
995
997
995
993
996
1002
1004
1010
1010
1009
1013
1015
1023
1026
1026
1025
1027
1030
1037
1038
1039
1038
1042
1047
1051
1056
1058
1059
1059
1062
1069
1067
1066
1061
1060
1058
1057
1051
1044
1039
1035
1033
1031
1024
1020
1012
1013
1011
1014
1010
1007
1003
1000
1003
1006
1004
1000
997
997
999
1001
1002
996
992
995
994
1000
997
996
994
990
997
997
998
996
995
995
996
1000
1000
999
999
997
1000
1001
998
1000
999
995
1001
1003
1003
1000
997
996
1000
1003
1001
996
995
996
997
1003
1001
996
995
995
995
998
999
996
991
991
993
997
996
992
993
993
993
999
995
989
989
991
993
997
995
994
993
990
994
996
995
992
991
990
992
996
994
992
989
991
996
1001
999
1000
995
997
998
1006
1006
1003
1004
1005
1009
1011
1009
1004
1002
1000
1004
1004
1002
996
994
990
993
996
996
992
990
984
988
990
990
987
986
984
982
984
985
984
981
980
981
983
981
977
975
977
978
982
982
978
975
977
979
980
983
979
975
976
979
982
982
977
976
976
979
982
979
980
975
977
979
984
984
988
986
992
999
1014
1027
1040
1052
1064
1070
1070
1062
1043
1027
1021
1034
1058
1086
1116
1141
1162
1177
1186
1171
1145
1113
1093
1075
1051
1023
990
960
940
930
926
926
929
936
942
955
961
964
960
960
957
963
963
966
964
962
961
964
969
968
964
961
963
966
970
969
969
965
966
970
973
973
970
968
970
972
977
978
974
972
973
977
982
982
983
981
982
986
989
991
988
987
989
996
999
1000
1001
1001
1002
1007
1011
1012
1011
1009
1010
1016
1023
1025
1023
1024
1028
1033
1039
1039
1042
1040
1042
1043
1048
1045
1043
1038
1034
1035
1033
1029
1023
1013
1011
1007
1008
1003
1004
996
991
992
991
990
985
986
985
986
988
985
982
976
979
980
984
980
982
979
978
979
983
983
979
979
979
980
984
979
979
977
975
977
976
979
975
973
975
977
981
981
976
975
974
976
980
981
977
975
974
976
978
977
972
972
971
973
975
976
973
970
970
973
974
974
972
970
968
970
975
971
969
966
968
969
970
970
968
966
966
968
972
971
969
965
964
967
969
969
966
961
965
966
964
967
964
964
964
965
968
966
965
963
965
970
973
976
973
969
969
973
976
975
975
973
976
979
984
983
980
976
971
973
976
974
971
967
965
966
968
967
964
963
963
962
963
964
960
958
958
959
959
957
952
950
951
954
957
956
952
949
949
951
953
953
951
947
946
950
951
950
951
946
944
950
954
954
951
948
947
949
953
953
951
949
948
948
953
954
949
949
951
954
957
955
957
957
961
967
977
985
994
1010
1027
1044
1059
1064
1062
1052
1034
1014
1010
1011
1026
1048
1080
1111
1138
1152
1164
1162
1147
1126
1111
1090
1066
1042
1020
995
975
954
934
917
908
905
907
910
911
911
918
926
928
928
929
929
932
934
934
937
934
935
936
937
939
934
935
930
931
935
937
939
938
933
932
938
939
939
939
937
938
939
943
947
946
943
942
946
949
949
950
947
946
950
957
956
956
954
956
961
963
968
967
967
967
975
981
980
982
982
985
987
996
994
996
996
996
1001
1008
1012
1010
1013
1015
1021
1024
1027
1024
1024
1024
1026
1027
1023
1019
1012
1007
1004
1004
999
995
987
985
985
986
981
979
975
971
974
971
975
971
968
966
968
969
969
967
965
963
966
968
968
966
965
967
967
968
968
969
965
967
969
973
970
969
968
967
971
972
973
969
968
969
973
976
974
972
970
970
973
976
977
974
972
974
975
979
978
977
975
976
980
980
984
980
978
975
979
982
982
981
978
979
982
984
985
980
978
979
982
987
986
983
980
982
987
989
988
986
984
981
981
987
988
985
984
985
989
995
994
992
991
991
992
998
998
1000
998
997
1003
1005
1008
1005
1004
1001
1003
1003
1004
999
999
995
997
996
999
994
991
991
991
993
995
991
988
989
989
992
995
990
983
983
984
988
990
989
984
986
983
986
987
984
984
983
985
986
986
984
978
980
983
987
985
984
985
984
984
988
988
985
987
983
985
986
989
988
988
986
987
990
990
990
990
991
996
1001
1008
1011
1011
1022
1036
1055
1070
1080
1089
1095
1093
1091
1078
1066
1059
1064
1079
1098
1120
1145
1164
1180
1200
1212
1212
1194
1170
1152
1138
1128
1109
1088
1065
1042
1022
1002
982
966
952
945
946
952
958
960
966
970
974
977
978
975
972
973
973
976
976
975
972
974
976
976
978
975
973
973
974
977
977
975
975
973
977
980
982
979
977
977
980
982
982
981
981
984
985
991
992
990
987
989
993
994
997
996
997
996
1001
1007
1006
1004
1004
1006
1011
1014
1017
1018
1018
1019
1023
1026
1029
1027
1027
1029
1034
1039
1042
1041
1044
1048
1054
1056
1057
1059
1059
1060
1061
1062
1060
1056
1050
1045
1045
1043
1038
1034
1027
1024
1023
1021
1020
1016
1010
1010
1008
1011
1007
1005
1002
1002
1002
1005
1005
1001
998
999
998
1004
1001
1001
995
998
998
1001
1002
996
994
995
998
1001
1001
999
996
997
999
1003
1004
999
994
997
997
1004
1001
998
1000
997
999
1005
1002
999
997
994
1001
1000
1002
997
997
997
997
1001
1000
998
995
995
997
1000
1002
995
995
994
994
999
1000
996
996
995
998
1001
1000
998
995
994
997
999
999
994
993
992
995
1000
998
997
992
991
994
1000
995
995
990
993
995
998
1001
1002
1001
1001
1004
1006
1006
1007
1003
1004
1009
1013
1013
1012
1010
1011
1012
1013
1014
1011
1006
1007
1005
1008
1007
1004
1002
1000
999
1002
1000
1003
998
996
997
999
1000
995
993
994
993
990
989
988
985
986
987
993
988
989
985
983
983
986
989
985
983
982
985
988
987
983
983
982
980
983
985
985
981
981
982
987
987
985
984
982
985
990
992
989
985
988
989
992
993
993
995
998
1004
1017
1026
1036
1049
1066
1081
1092
1097
1090
1076
1063
1052
1051
1059
1073
1091
1112
1139
1163
1179
1190
1196
1190
1176
1155
1135
1116
1098
1077
1055
1036
1011
986
961
946
935
934
931
934
937
942
951
961
963
964
963
964
966
970
966
965
960
961
964
969
970
968
967
967
970
969
969
967
965
965
967
970
970
969
963
968
973
973
974
974
973
972
975
980
981
981
980
974
981
983
987
989
984
989
992
997
1000
999
999
1003
1006
1010
1013
1014
1013
1015
1020
1027
1028
1027
1026
1029
1035
1039
1043
1043
1041
1045
1048
1055
1051
1049
1045
1043
1038
1038
1033
1028
1022
1019
1017
1014
1010
1005
997
996
993
998
996
992
990
986
987
987
987
986
984
983
983
984
984
982
979
977
979
980
981
981
978
977
980
981
984
977
975
976
980
979
980
977
977
976
978
981
982
976
974
972
974
975
978
977
973
974
977
980
979
981
973
972
973
976
977
976
972
972
976
980
979
975
970
972
976
977
981
975
971
972
975
978
975
972
974
973
977
978
978
973
971
976
979
984
986
984
984
982
984
985
987
985
985
985
989
995
995
995
991
989
991
992
989
989
989
985
986
988
986
980
981
980
980
984
984
979
974
974
975
977
978
968
967
966
967
972
973
974
970
968
967
970
971
966
967
966
968
975
971
969
966
965
967
967
970
970
965
967
966
971
970
969
969
967
970
972
972
970
968
968
971
975
975
974
969
972
983
987
993
996
1000
1009
1023
1038
1050
1059
1072
1074
1079
1073
1061
1048
1034
1040
1053
1069
1091
1111
1130
1151
1168
1177
1170
1151
1126
1107
1092
1080
1064
1040
1014
995
976
961
945
932
924
925
927
937
944
946
947
950
956
962
960
958
953
953
958
962
961
960
956
958
958
962
962
962
958
957
962
963
961
961
959
959
961
967
965
965
963
963
967
970
970
972
970
970
975
977
978
977
978
978
983
984
985
987
987
987
990
994
995
997
997
999
1002
1009
1013
1011
1012
1010
1016
1021
1022
1025
1023
1025
1031
1037
1038
1041
1043
1046
1046
1049
1049
1047
1043
1041
1040
1039
1035
1028
1022
1014
1012
1013
1012
1007
1001
1000
999
1000
999
994
992
989
989
992
991
987
985
984
986
986
986
984
980
980
983
986
984
985
983
979
983
987
983
984
981
982
983
986
986
985
981
982
984
986
986
985
982
983
981
986
987
985
982
981
985
987
986
985
983
979
983
985
984
983
980
980
981
985
984
982
980
976
979
984
983
980
978
978
979
982
980
980
977
977
978
980
979
978
975
972
975
980
981
980
977
978
981
984
986
988
985
986
988
990
990
985
989
989
992
995
998
996
993
992
993
993
994
992
987
986
984
983
983
980
978
979
979
983
981
976
974
971
975
977
970
968
966
962
968
970
974
970
965
966
968
969
970
967
964
960
964
968
968
964
960
961
963
966
966
965
963
961
962
965
966
965
964
963
962
967
969
966
962
963
965
968
970
970
968
971
975
981
985
988
994
1004
1022
1040
1057
1066
1068
1067
1060
1046
1037
1031
1037
1054
1081
1111
1140
1158
1172
1182
1180
1165
1145
1120
1099
1080
1060
1039
1012
981
957
937
925
919
915
912
915
920
933
938
948
949
948
948
947
949
949
951
948
946
951
954
952
950
949
948
949
954
953
950
947
948
952
955
955
951
951
951
954
959
957
957
955
956
957
960
962
963
960
959
964
970
969
966
965
968
974
979
980
979
978
980
987
987
991
992
994
994
998
999
1005
1007
1007
1005
1010
1015
1019
1021
1017
1021
1023
1029
1031
1032
1028
1024
1021
1023
1018
1015
1007
1000
998
998
992
987
981
977
976
977
975
971
964
961
963
965
964
961
956
958
957
961
960
956
954
950
952
957
958
956
952
951
953
953
953
952
951
950
951
952
954
952
950
950
949
949
951
948
945
945
946
950
949
947
943
945
948
948
946
945
947
945
946
947
949
945
945
941
944
948
948
946
944
943
942
944
946
945
941
941
942
944
945
942
941
936
939
939
941
939
940
941
944
945
947
946
944
943
946
950
951
951
949
950
955
958
959
957
952
950
952
954
953
950
948
945
947
947
946
945
942
940
940
941
941
936
933
930
931
934
935
934
931
932
930
932
935
935
931
930
934
934
936
934
930
931
930
931
932
928
926
929
930
933
936
931
929
930
934
936
933
934
932
932
933
936
940
937
934
936
936
941
944
943
943
946
953
963
973
981
992
1008
1024
1041
1052
1056
1052
1044
1031
1020
1011
1016
1024
1043
1067
1096
1115
1134
1145
1148
1143
1126
1107
1086
1065
1043
1026
1006
985
958
937
922
908
907
902
900
904
906
911
918
919
921
919
919
919
923
923
923
919
918
919
921
922
921
919
919
922
923
921
919
921
919
923
925
926
925
924
922
925
931
931
931
928
930
934
936
937
937
934
935
937
940
947
944
945
947
949
953
954
955
958
958
962
969
973
974
973
977
982
987
991
992
990
995
1000
1007
1010
1013
1010
1010
1015
1018
1023
1021
1015
1016
1015
1013
1010
1005
999
992
992
992
986
983
975
972
974
974
971
971
968
965
965
966
967
964
960
961
962
965
963
963
961
959
960
962
962
958
958
956
959
963
963
961
962
961
960
966
964
963
961
958
964
968
969
966
963
961
965
970
971
967
966
967
967
969
969
969
965
967
968
971
973
970
968
967
970
972
973
971
969
967
970
973
975
973
970
968
973
973
974
972
966
967
970
969
974
971
968
968
969
972
972
972
971
970
974
977
978
974
976
975
978
982
984
983
982
983
984
986
987
981
980
976
979
980
977
975
972
971
970
972
973
972
971
967
965
971
971
964
957
958
960
966
968
964
959
959
960
963
964
960
952
949
951
955
954
948
940
941
944
948
958
964
965
962
959
961
962
961
957
958
957
959
965
965
967
965
966
969
968
964
964
977
1005
1035
1061
1077
1080
1075
1061
1042
1031
1033
1043
1063
1093
1129
1157
1171
1174
1160
1139
1117
1100
1083
1061
1035
1014
987
964
945
926
920
923
931
939
943
947
948
953
955
956
946
944
944
947
952
954
954
950
951
958
963
966
965
961
959
962
963
968
969
967
965
969
972
975
972
969
970
971
972
973
968
965
967
978
985
993
992
986
987
991
994
998
995
996
997
999
1010
1013
1015
1015
1014
1014
1019
1023
1025
1024
1025
1029
1033
1036
1040
1040
1038
1039
1039
1041
1042
1043
1045
1046
1047
1047
1042
1035
1028
1026
1021
1015
1010
1002
998
999
998
994
991
988
988
989
988
983
974
962
966
972
977
976
978
979
981
983
982
981
977
976
976
974
977
978
974
970
969
971
972
975
975
976
979
980
977
974
967
964
967
969
972
975
971
966
968
966
966
971
971
973
975
978
981
982
982
978
973
972
974
974
975
972
972
974
978
977
974
973
970
974
977
978
976
973
968
969
970
971
974
976
975
979
976
971
963
964
967
969
976
976
973
969
969
970
974
978
973
971
971
973
976
980
982
980
979
982
985
988
989
987
983
984
986
987
987
982
984
984
989
988
987
985
980
980
984
983
982
978
971
971
974
976
977
974
974
971
975
980
976
972
970
966
973
973
972
969
965
963
961
963
962
961
959
963
966
964
962
962
961
964
963
964
965
962
962
960
963
964
960
960
961
961
964
966
964
963
962
964
965
968
966
963
963
966
969
969
967
964
963
968
974
980
980
983
991
1004
1018
1021
1016
1010
1001
993
979
960
943
934
937
951
974
1003
1032
1055
1073
1084
1090
1079
1057
1032
1012
998
978
958
938
918
910
905
910
916
922
930
936
944
953
958
962
960
962
964
969
969
969
964
963
964
970
973
971
970
970
975
973
976
974
970
967
967
969
974
974
976
975
977
981
983
981
979
977
979
986
991
987
986
990
993
998
1000
1001
1000
1002
1005
1008
1011
1012
1012
1012
1019
1024
1027
1024
1025
1025
1029
1031
1036
1036
1037
1036
1039
1043
1047
1045
1044
1043
1046
1049
1050
1049
1045
1041
1041
1042
1041
1035
1029
1025
1021
1021
1016
1012
1005
998
994
989
984
983
976
976
976
977
976
972
969
967
965
965
964
961
956
956
958
956
957
952
951
950
950
954
959
957
955
951
951
955
956
953
955
952
955
956
958
959
956
953
956
956
960
960
957
953
957
958
962
959
958
959
958
960
960
957
955
954
957
960
961
963
957
957
959
959
963
961
953
954
955
957
961
959
952
948
947
955
959
958
955
955
956
959
962
957
953
952
954
958
956
958
956
956
959
961
964
961
960
958
960
962
967
966
964
965
969
971
970
972
971
970
969
970
974
971
964
964
967
968
967
965
962
959
960
962
964
961
959
956
959
957
958
956
949
947
945
948
953
957
956
953
955
956
957
955
953
949
953
955
958
956
955
954
954
958
961
960
959
955
955
959
962
960
959
958
960
963
964
961
959
959
958
963
964
965
964
963
963
967
970
967
962
961
966
972
978
983
984
991
1004
1018
1027
1031
1033
1033
1033
1034
1025
1021
1011
993
979
961
945
935
931
945
973
1003
1027
1043
1052
1054
1045
1032
1019
1004
990
976
968
960
956
943
935
925
924
924
925
928
932
939
950
956
960
965
964
960
964
968
971
971
968
968
972
976
975
976
976
974
975
979
983
982
979
983
984
988
989
989
992
990
992
998
1000
1000
997
997
999
1005
1008
1011
1010
1010
1014
1019
1023
1024
1023
1023
1030
1032
1034
1036
1033
1035
1040
1042
1044
1045
1044
1044
1047
1051
1055
1056
1056
1054
1056
1059
1062
1060
1055
1048
1043
1045
1038
1031
1024
1019
1015
1014
1012
1007
1001
993
996
996
995
991
988
984
985
987
986
980
981
979
980
985
986
982
978
977
978
980
984
983
979
977
980
981
982
979
978
977
981
982
984
981
979
976
982
986
987
982
981
982
983
986
988
985
983
984
985
987
991
991
988
988
984
987
985
985
984
984
983
986
985
985
982
981
982
982
986
983
978
977
979
982
981
980
979
976
978
980
985
982
978
976
977
979
982
982
977
975
980
984
985
986
984
984
986
988
988
988
986
985
987
991
993
994
994
993
992
997
999
997
994
992
993
995
994
990
983
982
983
986
987
982
978
977
979
981
981
978
974
977
978
977
979
976
968
970
972
978
976
971
970
969
972
975
977
973
973
972
972
973
976
976
971
969
970
971
974
974
971
969
971
974
975
973
970
969
971
974
975
974
972
969
971
975
978
976
976
978
981
988
994
1001
1005
1014
1028
1037
1044
1042
1038
1026
1012
1002
989
981
983
996
1017
1044
1072
1094
1112
1126
1134
1136
1121
1097
1074
1055
1037
1024
1008
988
968
951
937
929
919
917
916
917
926
936
946
955
958
957
963
970
970
970
967
966
967
971
974
973
971
971
974
976
977
977
974
971
975
979
980
982
975
978
981
985
985
987
983
983
985
990
995
995
989
993
997
1000
1005
1005
1005
1005
1008
1015
1018
1018
1015
1018
1022
1029
1031
1035
1035
1037
1037
1042
1046
1047
1046
1048
1052
1055
1058
1061
1059
1059
1062
1065
1068
1068
1063
1057
1052
1050
1051
1045
1035
1027
1026
1023
1021
1018
1012
1008
1006
1003
1001
1000
995
993
991
991
989
990
984
982
986
989
990
988
984
984
983
985
986
983
984
983
983
984
986
986
984
984
986
986
988
987
986
986
987
987
988
987
982
983
984
988
990
989
987
985
986
988
991
988
986
982
985
988
990
987
985
980
983
983
989
987
985
982
984
984
986
985
983
983
982
986
987
988
982
982
981
983
984
983
981
980
982
984
985
985
983
981
985
989
994
993
989
988
992
995
997
995
992
990
997
1001
1003
1006
998
997
996
998
1001
997
995
989
990
989
991
990
987
982
984
988
989
988
984
980
980
983
985
983
977
972
973
978
981
980
978
974
974
977
978
978
973
970
974
975
975
975
974
970
972
975
977
976
970
971
973
974
977
977
974
972
973
974
979
980
976
973
974
978
981
981
979
982
983
990
995
999
1007
1016
1030
1042
1048
1049
1041
1030
1014
996
983
978
984
999
1026
1054
1085
1107
1124
1136
1137
1122
1104
1076
1052
1031
1011
989
970
948
930
916
914
914
920
924
931
936
950
960
971
969
970
968
971
971
973
975
974
970
973
975
977
979
976
975
978
978
982
982
980
974
977
984
987
985
984
983
983
987
989
991
988
988
988
994
997
996
997
997
1001
1004
1008
1006
1002
1004
1007
1009
1016
1018
1016
1018
1021
1027
1031
1031
1031
1034
1036
1043
1044
1045
1042
1042
1045
1049
1053
1051
1051
1048
1049
1052
1057
1053
1046
1041
1041
1036
1036
1029
1021
1018
1016
1011
1008
1005
1000
991
989
991
987
986
981
976
975
978
977
978
975
973
972
972
972
969
964
964
965
968
968
969
963
963
964
966
965
965
964
960
961
963
967
966
962
960
959
962
967
969
965
961
963
964
966
965
964
961
964
966
965
965
963
958
959
965
965
964
963
958
959
961
963
964
960
957
959
960
962
961
956
956
957
957
956
958
956
956
958
958
960
957
954
954
954
956
958
954
952
949
952
954
954
952
951
950
950
954
957
957
957
954
959
963
965
963
958
957
962
964
964
965
965
964
967
969
972
970
967
964
964
964
964
966
962
962
960
961
964
961
957
953
956
957
957
952
948
944
943
945
947
944
938
939
941
942
946
946
944
941
943
944
947
949
948
947
947
949
949
942
937
940
939
942
945
943
935
935
939
943
945
942
939
939
943
945
948
946
943
937
940
943
944
944
941
941
944
948
952
953
955
959
966
980
995
1009
1022
1032
1041
1043
1039
1026
1002
980
965
961
968
989
1013
1039
1063
1089
1103
1107
1097
1080
1060
1042
1023
1007
988
969
955
941
931
919
906
904
903
913
921
925
925
927
931
936
939
938
934
933
933
936
941
940
939
938
939
941
942
941
937
936
942
945
947
946
944
942
942
946
952
952
951
949
953
955
958
960
959
961
961
966
970
970
970
970
974
981
985
986
986
989
991
996
1001
1001
1005
1007
1010
1015
1021
1024
1023
1027
1030
1036
1039
1040
1041
1042
1046
1047
1053
1054
1052
1048
1054
1056
1056
1049
1044
1043
1039
1037
1036
1031
1024
1017
1014
1013
1012
1008
1007
1001
1000
1002
1002
998
996
992
992
995
995
994
990
992
988
994
995
995
994
989
993
996
997
996
993
992
993
997
998
994
991
990
992
994
1000
1000
997
997
999
998
1002
1003
1000
1001
1000
1002
1005
1005
1001
999
999
1004
1008
1002
1003
999
999
1003
1008
1006
1005
1002
1001
1004
1005
1006
1004
1000
1004
1004
1006
1004
1002
1000
1003
1002
1005
1005
1001
1000
1002
1003
1006
1006
1004
1003
1003
1005
1006
1007
1005
1001
1001
1006
1010
1011
1010
1008
1013
1015
1020
1017
1016
1016
1017
1019
1024
1025
1024
1022
1021
1023
1022
1021
1020
1017
1015
1016
1019
1016
1011
1010
1009
1010
1014
1012
1008
1005
1007
1007
1009
1008
1001
999
996
1000
1004
1007
1005
997
999
1001
1003
1001
1000
999
999
1003
1004
1004
1000
997
1001
1001
1001
1002
1000
997
1000
1001
1002
1002
999
996
1000
1001
1002
1001
1000
1001
1001
1005
1007
1009
1009
1010
1017
1024
1033
1042
1055
1069
1088
1098
1109
1105
1094
1080
1065
1055
1059
1068
1086
1111
1144
1170
1191
1203
1204
1189
1168
1150
1136
1120
1104
1080
1059
1043
1022
1000
980
969
967
966
974
979
981
987
992
997
1002
999
994
993
996
999
1000
998
996
998
998
1001
1002
1003
1001
999
1001
1004
1006
1004
1003
1004
1005
1008
1010
1012
1007
1005
1010
1012
1015
1015
1013
1014
1016
1020
1022
1021
1021
1021
1023
1029
1032
1033
1034
1036
1038
1042
1045
1048
1048
1047
1050
1058
1059
1061
1062
1062
1066
1066
1070
1073
1075
1080
1080
1087
1091
1094
1094
1093
1094
1094
1095
1092
1088
1080
1079
1075
1074
1068
1061
1054
1054
1057
1054
1051
1047
1040
1041
1041
1044
1042
1039
1035
1036
1038
1040
1039
1034
1034
1035
1038
1039
1038
1033
1031
1033
1036
1039
1037
1033
1035
1034
1039
1040
1040
1037
1035
1037
1041
1044
1044
1040
1040
1039
1043
1044
1044
1042
1041
1042
1043
1046
1044
1042
1040
1038
1043
1044
1046
1043
1041
1040
1043
1047
1044
1042
1042
1041
1043
1045
1045
1042
1037
1038
1040
1047
1042
1040
1040
1037
1042
1046
1045
1042
1038
1038
1044
1045
1046
1043
1040
1040
1046
1048
1045
1042
1039
1044
1047
1047
1051
1052
1052
1055
1056
1059
1054
1055
1056
1059
1063
1065
1067
1064
1061
1063
1064
1065
1064
1061
1057
1058
1058
1061
1055
1052
1048
1047
1047
1051
1051
1051
1046
1044
1047
1049
1048
1044
1039
1042
1047
1051
1048
1044
1040
1041
1043
1046
1045
1044
1038
1041
1045
1045
1044
1041
1042
1042
1047
1050
1048
1045
1044
1047
1049
1050
1050
1049
1047
1046
1051
1054
1052
1050
1049
1054
1058
1065
1071
1076
1085
1106
1127
1142
1149
1143
1136
1120
1106
1108
1117
1133
1159
1192
1219
1241
1259
1257
1237
1215
1192
1179
1161
1138
1117
1093
1073
1053
1033
1018
1011
1009
1013
1020
1023
1032
1035
1041
1045
1049
1048
1046
1043
1047
1048
1051
1050
1050
1049
1050
1052
1056
1055
1050
1049
1051
1052
1056
1054
1051
1050
1053
1056
1057
1057
1054
1052
1055
1059
1062
1064
1060
1060
1062
1066
1067
1068
1067
1064
1069
1073
1074
1076
1074
1071
1077
1079
1084
1086
1086
1086
1088
1093
1097
1098
1098
1098
1100
1105
1109
1110
1109
1110
1113
1115
1120
1126
1126
1126
1128
1132
1132
1131
1127
1120
1118
1114
1115
1110
1105
1096
1092
1091
1089
1084
1081
1076
1072
1075
1076
1074
1071
1066
1066
1067
1068
1064
1061
1060
1057
1060
1063
1061
1056
1055
1057
1058
1060
1060
1056
1054
1056
1056
1058
1061
1058
1055
1055
1057
1062
1060
1058
1053
1052
1058
1060
1060
1056
1055
1054
1058
1059
1058
1056
1051
1052
1056
1058
1056
1054
1051
1053
1054
1059
1056
1052
1047
1052
1051
1055
1053
1052
1049
1052
1050
1054
1051
1049
1048
1048
1050
1051
1051
1049
1044
1049
1050
1053
1052
1047
1046
1045
1048
1051
1051
1048
1046
1046
1047
1050
1049
1046
1044
1046
1049
1049
1054
1053
1053
1054
1056
1057
1056
1053
1053
1053
1060
1059
1063
1062
1059
1061
1062
1063
1061
1059
1055
1054
1055
1057
1052
1050
1046
1044
1043
1046
1045
1043
1042
1039
1043
1044
1040
1038
1036
1032
1036
1038
1035
1031
1035
1034
1033
1035
1034
1030
1028
1032
1033
1031
1031
1031
1028
1029
1029
1032
1031
1031
1028
1027
1029
1033
1032
1027
1026
1024
1027
1032
1030
1029
1027
1028
1030
1032
1033
1030
1026
1028
1032
1036
1036
1034
1031
1036
1042
1046
1053
1057
1068
1084
1096
1109
1115
1113
1106
1096
1085
1071
1061
1059
1068
1089
1115
1144
1169
1186
1201
1215
1214
1203
1177
1155
1132
1116
1098
1082
1058
1032
1010
999
987
983
975
973
973
981
991
997
1005
1009
1011
1018
1020
1020
1020
1016
1016
1016
1018
1024
1022
1021
1020
1021
1024
1027
1024
1023
1022
1022
1024
1028
1027
1024
1025
1023
1025
1032
1031
1029
1029
1026
1031
1035
1034
1034
1033
1036
1040
1044
1043
1041
1041
1043
1046
1049
1048
1048
1046
1051
1057
1062
1062
1061
1060
1061
1067
1072
1072
1073
1073
1074
1078
1082
1082
1084
1081
1086
1091
1095
1095
1096
1095
1098
1098
1105
1102
1100
1094
1089
1090
1085
1081
1074
1068
1065
1063
1062
1056
1049
1043
1042
1045
1045
1038
1037
1031
1029
1031
1034
1032
1029
1027
1028
1028
1029
1027
1025
1023
1021
1023
1023
1024
1022
1017
1019
1020
1022
1021
1021
1019
1020
1021
1021
1021
1021
1016
1015
1020
1023
1021
1017
1016
1015
1020
1021
1019
1017
1015
1016
1016
1016
1017
1014
1012
1010
1015
1016
1015
1014
1013
1012
1013
1015
1015
1011
1011
1008
1010
1011
1014
1012
1009
1007
1009
1013
1011
1009
1006
1004
1008
1011
1008
1008
1007
1005
1009
1011
1008
1003
1003
1003
1006
1007
1004
1004
1003
1005
1004
1011
1009
1008
1008
1012
1015
1015
1010
1007
1009
1013
1011
1020
1020
1018
1016
1017
1018
1018
1017
1014
1009
1011
1010
1014
1009
1005
1002
1001
1003
1004
1001
999
996
996
997
1000
1000
997
993
995
994
995
988
990
986
991
993
994
991
985
982
987
988
991
986
984
983
984
986
988
986
981
980
980
984
987
986
982
979
980
984
984
987
981
980
979
983
985
984
983
980
979
985
985
984
983
981
986
992
999
1003
1009
1014
1025
1040
1050
1059
1064
1059
1052
1042
1030
1011
1003
1005
1019
1039
1065
1093
1116
1136
1152
1160
1158
1138
1118
1097
1081
1067
1048
1025
1000
976
952
941
930
919
913
909
914
925
935
943
949
953
956
961
964
964
960
959
958
963
965
967
964
960
960
967
969
967
961
958
961
965
969
970
968
967
967
968
971
971
970
970
971
974
977
978
975
973
976
979
983
983
985
981
985
989
993
995
991
992
994
1000
1002
1004
1006
1006
1009
1013
1018
1020
1018
1016
1019
1022
1028
1031
1029
1030
1031
1034
1038
1037
1036
1034
1036
1039
1039
1038
1033
1028
1026
1027
1023
1020
1011
1006
1001
997
996
990
984
979
975
975
975
970
965
960
960
959
961
958
956
951
953
952
952
952
949
947
944
944
949
947
946
941
941
941
946
944
943
941
939
939
942
944
942
938
938
938
939
941
936
936
936
937
940
939
935
932
933
933
937
937
933
930
930
932
935
931
930
927
927
929
932
927
924
921
926
927
929
924
924
922
921
923
926
925
920
917
913
918
922
920
919
915
916
918
920
918
913
909
915
916
917
915
909
910
913
914
916
914
910
910
912
917
921
921
919
918
918
920
922
922
921
920
923
926
926
928
928
927
926
926
927
927
923
916
917
918
919
915
913
909
910
910
914
909
907
904
903
906
909
906
903
896
895
897
902
902
903
899
897
897
898
895
893
893
895
899
902
899
895
890
895
896
900
899
895
889
894
897
899
900
894
892
892
896
900
899
895
894
892
896
898
901
897
898
899
905
910
913
917
924
935
953
970
985
994
996
996
989
973
949
928
914
913
927
948
972
998
1014
1033
1048
1056
1049
1028
1010
993
979
967
948
930
912
895
879
873
869
861
854
856
864
871
876
880
880
882
887
895
895
892
891
890
896
898
900
896
895
898
902
905
906
907
907
906
909
913
916
912
911
914
920
923
923
920
921
922
928
933
933
934
934
938
942
947
949
950
950
956
958
962
964
966
965
970
976
982
983
984
983
986
989
996
996
996
998
1002
1004
1008
1009
1009
1009
1011
1016
1018
1018
1019
1017
1017
1016
1015
1009
1001
992
986
981
976
970
961
956
954
950
949
948
941
938
936
941
942
935
934
931
932
933
937
938
935
930
932
934
937
936
935
929
931
935
938
936
937
934
934
938
940
940
936
935
935
940
943
944
940
937
939
943
944
942
941
937
938
938
943
942
938
940
939
943
945
947
944
941
941
941
946
944
943
942
938
940
942
943
941
939
938
939
941
943
938
938
934
938
940
939
937
933
933
938
941
937
935
934
932
933
937
935
933
932
930
932
933
935
936
934
934
942
943
943
942
940
938
944
946
946
946
943
948
949
953
949
946
943
941
944
948
946
941
938
935
936
937
936
934
930
930
932
932
931
931
928
929
930
931
928
923
923
925
927
928
925
924
917
918
921
926
924
922
916
918
921
921
921
921
917
918
921
923
925
919
919
920
922
925
923
921
917
919
922
921
924
924
922
924
928
932
932
933
932
943
955
968
978
990
1000
1007
1012
1008
999
983
968
962
966
981
1000
1022
1046
1071
1091
1103
1107
1100
1084
1063
1049
1037
1024
1003
983
960
941
922
904
894
882
878
879
884
890
893
897
902
909
913
910
910
905
907
912
915
913
911
911
909
910
913
914
913
909
909
911
911
916
915
914
912
915
919
918
915
914
913
915
920
919
917
914
914
915
923
924
924
922
925
929
931
936
933
933
934
940
942
944
942
942
944
947
951
954
955
956
956
963
967
968
967
964
966
968
972
970
972
972
974
976
977
977
973
971
968
967
965
960
952
941
940
937
937
932
926
920
915
916
914
911
908
903
903
904
902
902
900
892
895
894
899
897
896
892
894
894
894
892
891
888
888
891
895
896
891
889
889
889
892
895
894
893
894
897
898
896
894
890
889
893
897
893
893
892
894
893
897
895
893
890
890
894
898
899
894
892
892
895
897
895
889
892
892
894
896
894
892
891
892
892
893
893
891
890
890
891
893
894
893
890
890
893
894
894
889
889
887
893
893
892
891
887
889
892
896
896
896
896
899
902
903
900
897
897
897
901
904
904
904
904
908
907
906
907
908
904
904
904
904
903
899
896
896
902
900
900
898
895
898
897
896
893
891
890
889
889
890
889
888
890
889
891
893
892
888
888
887
890
892
892
892
887
887
890
895
891
886
887
888
892
897
896
891
891
889
894
899
896
893
893
895
896
901
900
902
900
904
914
922
928
938
951
966
985
1005
1008
1001
990
971
956
940
932
934
947
970
1001
1026
1048
1057
1054
1046
1036
1018
1000
980
964
946
934
919
903
885
874
867
866
868
871
873
876
879
885
892
892
890
889
888
891
893
895
894
891
893
894
897
897
896
893
894
897
898
899
897
895
895
898
903
901
899
899
902
904
906
910
910
910
910
914
917
920
920
921
920
924
928
932
932
930
932
939
944
944
941
941
943
950
955
959
959
960
960
965
971
974
974
975
979
984
990
990
990
988
990
991
991
986
981
972
967
966
963
959
953
947
944
944
943
939
934
932
928
931
931
931
929
927
927
927
930
928
927
923
921
924
927
925
922
920
920
925
928
927
926
922
924
925
931
927
927
927
926
929
933
931
931
926
928
931
934
935
932
932
931
935
938
937
933
931
933
936
938
937
934
932
931
934
938
936
933
932
929
932
935
935
935
930
930
933
935
936
931
931
930
933
934
934
932
930
929
933
935
933
932
929
930
932
934
934
930
926
927
932
935
936
939
935
935
939
944
942
942
940
940
943
946
950
949
948
944
947
949
946
942
942
939
944
944
942
940
933
933
934
936
939
936
934
931
930
937
936
930
929
926
927
933
932
932
929
929
927
930
927
928
926
925
925
929
930
927
925
925
927
929
930
927
927
926
928
930
931
928
926
928
930
934
932
930
929
929
930
933
932
934
932
934
939
950
955
964
978
996
1019
1039
1049
1052
1048
1036
1022
1008
1005
1011
1024
1045
1072
1099
1118
1131
1135
1129
1115
1098
1079
1064
1049
1030
1014
993
968
944
927
913
905
904
906
903
907
910
915
921
922
918
918
915
917
919
918
916
918
920
921
923
924
923
920
919
923
926
924
923
919
920
923
924
926
923
922
924
925
930
929
927
927
928
931
936
935
934
933
933
938
942
943
942
943
943
948
953
955
954
955
955
961
966
970
968
969
972
979
983
987
988
989
992
999
1005
1006
1006
1006
1007
1008
1007
1003
994
990
989
984
983
979
975
969
965
967
967
964
959
957
957
957
961
955
951
949
947
948
954
954
950
948
948
947
951
952
948
944
946
950
954
951
950
949
948
951
952
952
950
947
949
954
956
955
951
949
947
949
952
952
952
948
949
950
950
949
951
948
950
952
954
954
952
950
950
952
956
955
954
949
946
948
950
952
950
950
951
953
954
957
952
952
951
952
950
950
951
948
948
947
951
953
949
947
948
950
953
953
950
951
951
959
961
961
960
959
960
962
966
967
965
964
968
970
974
973
970
967
965
967
968
966
962
959
956
956
959
959
957
953
950
953
957
956
952
948
945
947
951
951
948
947
943
944
946
944
943
942
944
948
947
948
946
945
944
947
952
948
946
944
942
950
952
950
949
945
948
947
948
950
947
944
947
950
954
955
958
957
961
969
977
984
997
1012
1034
1056
1077
1086
1085
1076
1063
1054
1051
1050
1060
1071
1091
1116
1141
1161
1175
1184
1184
1172
1157
1138
1122
1108
1091
1076
1057
1031
1004
978
959
945
934
925
922
920
923
929
935
935
935
934
932
934
938
938
934
933
933
937
939
936
935
931
936
938
938
939
938
935
934
938
941
940
940
936
936
940
943
940
938
938
939
940
945
945
946
944
946
948
952
952
949
949
949
953
956
960
961
958
960
962
967
969
970
969
974
976
980
981
982
981
983
987
990
994
996
1000
1004
1009
1012
1018
1018
1019
1020
1023
1027
1027
1020
1016
1012
1011
1006
1007
997
993
994
992
992
985
981
976
975
975
976
974
972
968
968
971
972
970
966
966
965
966
967
968
966
965
964
964
966
968
962
963
961
966
964
968
965
963
965
965
967
966
966
960
962
964
967
969
962
960
963
964
967
967
965
963
962
962
965
965
966
962
964
967
968
968
964
962
963
965
966
967
961
960
960
964
967
965
965
963
958
963
967
964
962
962
962
963
965
967
965
961
961
963
965
965
962
961
962
961
967
966
966
962
962
964
968
967
965
964
964
966
971
973
973
971
970
972
977
975
975
973
974
976
981
980
978
977
977
977
982
979
977
973
974
973
977
974
970
966
964
966
969
968
968
963
964
964
969
967
965
961
959
958
960
960
956
956
960
959
961
961
957
955
955
958
960
961
957
956
952
955
959
959
958
957
956
960
962
961
960
957
956
958
964
963
961
957
955
960
965
962
961
961
962
964
968
968
968
968
968
976
985
989
998
1009
1026
1049
1068
1078
1084
1082
1073
1062
1054
1047
1047
1052
1066
1087
1111
1138
1159
1170
1184
1189
1182
1165
1143
1122
1107
1094
1078
1054
1027
999
977
961
950
939
932
926
924
929
939
943
945
945
947
949
951
953
951
949
948
949
956
953
953
952
949
951
953
956
956
953
953
956
957
957
957
952
952
954
957
958
956
956
955
958
960
962
962
960
960
963
964
965
967
964
964
968
970
972
973
973
970
976
981
982
984
982
983
986
990
994
994
994
993
998
1003
1006
1007
1005
1005
1011
1016
1020
1019
1018
1023
1028
1034
1036
1039
1038
1038
1040
1044
1041
1038
1031
1028
1027
1023
1020
1013
1010
1003
1003
1005
1004
998
992
989
989
989
986
983
982
983
982
986
985
984
981
979
981
980
982
978
977
976
978
983
981
976
974
973
978
980
980
979
975
976
974
981
979
978
979
977
978
982
980
981
980
979
980
981
981
978
976
974
975
978
980
977
975
976
978
977
978
979
974
974
975
980
978
977
975
973
977
979
980
979
975
974
976
980
980
975
974
973
976
979
980
979
976
974
978
977
980
978
977
975
975
979
980
979
977
975
980
981
984
980
981
980
985
988
988
986
985
984
987
990
992
993
990
993
994
996
996
995
991
990
991
994
995
992
985
982
986
990
990
984
983
979
981
982
980
980
978
980
980
980
981
977
975
972
977
980
980
979
974
974
974
980
979
974
971
973
975
976
977
978
975
973
974
977
978
976
974
974
976
979
979
976
974
973
975
979
977
975
976
976
977
982
985
980
982
983
986
994
1000
1001
1009
1021
1036
1052
1068
1080
1085
1086
1084
1076
1064
1055
1049
1051
1071
1093
1119
1145
1165
1182
1195
1193
1182
1160
1136
1117
1102
1081
1059
1030
1008
988
974
964
954
944
943
946
949
958
963
967
966
963
970
970
973
970
969
967
968
972
969
973
969
969
972
975
975
974
969
970
971
974
979
977
977
977
978
981
982
979
980
980
982
986
988
987
987
985
988
993
995
993
993
995
996
1000
1000
1000
1000
999
1003
1009
1012
1014
1011
1014
1019
1023
1027
1027
1025
1027
1029
1032
1038
1039
1037
1038
1042
1046
1049
1051
1052
1052
1054
1059
1064
1061
1058
1056
1056
1057
1054
1044
1037
1035
1035
1035
1032
1024
1019
1015
1014
1018
1014
1011
1006
1004
1005
1007
1005
1004
998
1000
1000
1003
999
998
996
996
996
999
1000
995
995
992
994
995
994
991
990
993
995
995
997
997
993
994
996
994
996
995
992
994
996
999
998
995
993
993
994
995
995
995
994
991
992
997
994
994
993
993
996
997
996
995
991
988
992
995
996
993
991
990
991
994
996
994
992
988
990
993
995
995
991
990
992
995
996
994
992
991
993
993
993
995
991
992
993
995
996
995
992
989
990
995
998
993
992
994
998
1001
1005
1004
1000
1000
999
1004
1007
1007
1008
1007
1010
1012
1015
1013
1009
1008
1009
1008
1011
1009
1004
1002
1002
1003
1002
1002
995
995
998
1001
998
998
993
992
995
997
996
991
992
989
991
993
995
995
990
990
991
993
992
988
987
990
992
994
991
991
988
989
990
993
993
994
990
992
993
994
995
993
990
991
990
994
997
996
991
993
997
999
1003
1003
1001
1005
1010
1019
1026
1036
1046
1060
1075
1088
1094
1088
1075
1057
1052
1051
1062
1077
1099
1122
1151
1176
1189
1190
1183
1166
1144
1128
1110
1087
1059
1034
1011
995
981
967
961
953
958
964
970
974
974
977
979
985
986
984
981
980
984
987
989
986
983
985
987
988
992
989
989
986
989
990
994
996
992
994
999
1001
999
1003
999
999
1004
1008
1011
1014
1011
1012
1012
1019
1022
1024
1023
1024
1030
1036
1039
1040
1040
1042
1047
1051
1054
1055
1053
1052
1056
1061
1064
1063
1061
1062
1065
1068
1070
1072
1068
1069
1068
1066
1066
1058
1053
1046
1044
1043
1040
1032
1025
1021
1022
1021
1021
1015
1009
1008
1006
1009
1011
1009
1003
999
1000
1003
1004
1002
997
997
999
999
1002
1001
995
993
995
998
998
995
994
993
995
997
999
998
995
991
993
997
998
997
992
994
993
997
995
997
990
989
993
993
994
993
992
992
990
995
995
992
988
990
989
992
994
991
989
991
990
992
992
991
987
984
988
992
988
986
986
983
985
990
990
987
983
984
983
987
989
988
983
983
986
987
987
984
982
981
983
986
984
985
984
980
982
986
987
986
986
986
989
990
990
990
988
990
991
993
994
993
996
996
998
1001
1000
1000
997
993
994
997
995
992
988
988
988
990
989
984
983
981
981
984
985
982
978
975
979
977
978
977
975
974
976
978
978
977
970
972
974
976
976
973
967
970
970
972
976
972
968
966
970
974
975
970
965
962
968
972
970
968
965
964
970
972
972
974
970
968
969
976
978
980
980
985
994
1005
1018
1030
1038
1045
1050
1051
1038
1024
1001
985
979
987
1003
1024
1050
1073
1096
1113
1123
1122
1110
1091
1069
1052
1029
1010
990
969
951
942
930
926
920
918
920
926
933
939
941
944
952
960
961
960
957
957
960
962
965
963
962
960
963
966
967
967
964
963
966
971
972
971
969
968
971
975
977
976
976
975
978
983
987
986
985
983
986
991
993
996
998
999
1001
1008
1010
1011
1011
1013
1016
1021
1023
1027
1027
1028
1034
1040
1042
1045
1042
1044
1048
1052
1057
1059
1056
1059
1063
1067
1070
1070
1067
1068
1070
1071
1070
1066
1057
1054
1053
1051
1047
1041
1036
1031
1027
1026
1027
1021
1020
1016
1015
1017
1016
1014
1009
1009
1011
1014
1013
1010
1008
1008
1010
1013
1015
1012
1010
1007
1010
1013
1016
1014
1010
1009
1011
1012
1016
1016
1013
1010
1014
1014
1017
1017
1011
1014
1012
1018
1020
1018
1014
1016
1016
1018
1018
1017
1013
1014
1016
1019
1018
1018
1015
1013
1018
1021
1019
1014
1012
1012
1015
1017
1021
1018
1015
1016
1016
1018
1017
1015
1012
1008
1012
1014
1018
1015
1011
1011
1012
1014
1014
1015
1010
1010
1014
1013
1017
1014
1010
1012
1013
1016
1014
1014
1012
1013
1015
1019
1022
1023
1021
1019
1021
1025
1023
1023
1021
1023
1024
1029
1030
1029
1026
1024
1025
1027
1024
1025
1023
1019
1019
1020
1020
1017
1013
1012
1015
1016
1016
1015
1011
1006
1010
1012
1012
1010
1005
1004
1004
1008
1009
1010
1006
1001
1003
1005
1005
1004
1003
1001
1000
1005
1005
1004
1001
997
1000
1003
1002
1000
997
994
1000
1001
1001
1004
999
998
1000
1004
1004
1003
1000
997
1002
1003
1004
1004
1005
1005
1011
1016
1022
1028
1034
1050
1066
1083
1090
1090
1086
1072
1056
1046
1040
1044
1057
1075
1103
1134
1160
1177
1181
1178
1169
1150
1129
1105
1080
1056
1035
1015
995
976
963
955
949
952
956
962
968
973
980
986
987
987
985
982
985
990
991
991
989
988
987
988
991
993
990
988
991
993
998
996
993
993
995
998
1002
1001
996
996
1001
1004
1008
1009
1006
1005
1011
1015
1016
1019
1018
1020
1022
1024
1029
1032
1031
1032
1038
1040
1043
1047
1046
1045
1051
1056
1059
1059
1061
1059
1063
1070
1073
1072
1071
1074
1077
1082
1082
1081
1076
1072
1067
1068
1064
1058
1048
1039
1041
1037
1038
1030
1027
1021
1020
1018
1019
1015
1015
1012
1011
1012
1016
1013
1011
1006
1010
1011
1011
1009
1004
1005
1007
1010
1011
1009
1007
1004
1005
1009
1010
1008
1006
1006
1008
1010
1011
1011
1008
1005
1006
1011
1010
1011
1009
1006
1007
1008
1011
1009
1008
1004
1009
1009
1010
1008
1005
1003
1006
1007
1009
1008
1004
1003
1005
1006
1008
1008
1004
1002
1004
1006
1008
1007
1003
1000
1002
1006
1006
1006
1002
997
1000
1004
1006
1004
1002
1000
1004
1004
1005
1004
1001
999
1003
1005
1007
1004
1003
1001
1003
1007
1012
1009
1009
1009
1012
1013
1016
1014
1012
1013
1016
1018
1022
1021
1017
1017
1020
1020
1021
1018
1014
1012
1016
1016
1014
1012
1010
1008
1007
1008
1013
1011
1009
1003
1005
1006
1009
1007
1005
1003
1002
1001
1003
1005
1003
1001
999
1003
1002
1000
996
995
995
996
998
995
993
996
996
999
1002
997
995
994
996
999
1002
998
997
995
997
1001
1001
1000
998
995
999
997
1002
1003
1002
1002
1002
1010
1016
1018
1022
1028
1039
1053
1067
1076
1085
1087
1085
1078
1066
1051
1040
1040
1051
1075
1096
1122
1145
1166
1181
1189
1183
1166
1141
1117
1096
1075
1055
1028
1002
981
967
961
958
951
950
953
960
971
976
984
983
983
989
990
992
992
989
988
989
994
996
994
990
991
994
995
995
996
990
994
993
999
1001
996
997
997
999
1002
1005
1005
1006
1004
1008
1010
1014
1010
1009
1009
1015
1019
1023
1024
1021
1021
1029
1031
1035
1035
1035
1035
1038
1044
1050
1050
1050
1050
1053
1060
1063
1064
1065
1066
1069
1074
1077
1079
1075
1077
1081
1084
1084
1078
1075
1069
1063
1063
1057
1052
1045
1038
1037
1036
1032
1030
1021
1021
1019
1020
1020
1019
1015
1012
1012
1014
1017
1014
1009
1007
1008
1011
1009
1009
1006
1005
1007
1009
1010
1006
1007
1007
1008
1009
1011
1011
1010
1008
1007
1012
1014
1013
1011
1009
1010
1012
1013
1012
1011
1008
1008
1010
1013
1011
1011
1009
1011
1013
1014
1011
1007
1008
1007
1009
1014
1008
1010
1007
1006
1009
1013
1009
1007
1005
1004
1006
1007
1007
1003
1003
1001
1005
1005
1003
1000
1001
1000
1004
1004
1001
1000
998
998
1000
1003
1000
998
999
1001
1005
1007
1011
1009
1006
1010
1012
1014
1014
1013
1011
1014
1018
1021
1020
1019
1016
1016
1019
1017
1015
1013
1011
1013
1012
1010
1010
1004
1003
1003
1004
1006
1004
999
997
999
1000
1001
1000
997
993
992
998
998
998
999
993
992
997
998
996
991
992
994
993
996
997
992
992
992
998
999
998
996
996
994
1000
1000
997
996
995
997
999
1001
1000
998
997
999
1001
1000
1002
1002
1002
1008
1012
1021
1026
1034
1042
1056
1069
1080
1083
1081
1075
1067
1058
1041
1023
1013
1020
1038
1065
1094
1115
1133
1147
1163
1172
1172
1154
1133
1111
1093
1078
1059
1038
1012
996
981
973
967
961
957
953
962
972
979
983
987
989
992
997
1001
1000
999
998
999
1002
1005
1004
1004
1002
1002
1005
1008
1007
1003
1005
1007
1012
1012
1013
1008
1010
1011
1015
1017
1015
1016
1014
1018
1021
1023
1025
1024
1022
1026
1024
1029
1031
1030
1028
1034
1039
1041
1042
1036
1038
1042
1049
1053
1055
1052
1055
1058
1059
1067
1068
1066
1068
1071
1071
1076
1077
1076
1078
1084
1088
1092
1092
1089
1091
1095
1099
1103
1098
1095
1095
1088
1085
1089
1084
1078
1071
1067
1064
1061
1056
1051
1046
1043
1045
1040
1039
1034
1030
1029
1029
1031
1029
1025
1023
1023
1026
1024
1024
1024
1022
1022
1023
1024
1024
1016
1019
1020
1024
1026
1023
1021
1020
1020
1020
1022
1023
1022
1019
1019
1020
1023
1020
1020
1018
1020
1020
1020
1022
1021
1018
1017
1022
1022
1018
1016
1014
1018
1021
1021
1019
1016
1014
1013
1016
1021
1018
1015
1014
1014
1015
1019
1016
1013
1012
1011
1016
1014
1012
1014
1012
1013
1013
1015
1012
1012
1011
1012
1011
1016
1014
1011
1009
1011
1010
1010
1013
1011
1008
1010
1011
1012
1010
1010
1011
1013
1018
1022
1019
1017
1013
1018
1020
1021
1020
1021
1018
1022
1028
1028
1027
1025
1022
1024
1026
1026
1021
1018
1014
1016
1016
1015
1015
1012
1007
1010
1013
1011
1008
1008
1004
1004
1008
1009
1007
1003
1001
999
1001
1003
1002
997
1000
1001
1000
1000
1001
1000
998
1000
1000
1004
1001
999
997
998
1003
1000
1000
997
998
998
999
1002
999
999
998
997
1000
1002
1003
1002
1000
1001
1004
1005
1007
1012
1012
1020
1032
1044
1058
1069
1075
1085
1089
1086
1073
1055
1041
1036
1038
1051
1071
1091
1119
1146
1172
1187
1192
1190
1177
1156
1140
1126
1105
1083
1062
1043
1019
1002
981
965
956
951
953
954
959
962
965
973
981
985
986
984
981
984
986
989
988
987
984
988
992
995
989
989
989
991
993
994
992
989
992
992
996
998
997
996
995
996
1002
1003
1005
1001
1001
1004
1008
1013
1012
1008
1013
1012
1018
1020
1019
1021
1017
1021
1025
1030
1032
1031
1031
1034
1040
1042
1042
1044
1044
1047
1053
1057
1058
1054
1059
1058
1062
1066
1066
1066
1067
1071
1075
1080
1077
1080
1076
1079
1082
1079
1077
1070
1065
1059
1059
1054
1048
1042
1036
1032
1033
1032
1029
1022
1021
1020
1020
1021
1017
1017
1010
1012
1012
1013
1010
1006
1001
1002
1008
1010
1008
1003
1002
1002
1003
1005
1002
1000
999
1001
1005
1004
1005
1004
1003
1000
1004
1006
1006
1002
1001
1002
1004
1003
1007
1003
1001
1004
1006
1007
1006
1004
1000
1000
1004
1005
1004
1000
996
999
1001
1005
1002
997
998
999
1000
1001
999
998
993
994
998
1001
998
998
995
996
998
998
996
995
994
996
998
997
995
994
991
991
995
993
994
991
990
989
992
989
988
987
984
986
990
989
988
984
981
981
986
988
988
987
986
990
992
991
993
990
989
991
994
997
995
993
994
995
998
1002
996
994
989
993
990
991
989
985
982
979
983
980
979
976
973
976
974
972
969
970
971
967
969
969
965
962
961
961
967
970
963
960
959
962
964
965
961
959
957
957
960
960
961
957
958
958
961
963
959
960
958
959
958
961
962
957
958
959
961
963
962
961
964
968
973
981
983
991
1000
1018
1035
1046
1048
1044
1032
1023
1002
984
966
958
969
989
1020
1045
1073
1091
1102
1108
1103
1090
1064
1041
1016
994
977
959
938
922
911
906
905
905
907
908
914
923
932
937
938
936
937
940
942
944
942
939
937
941
946
947
945
943
940
943
947
945
946
942
945
944
947
950
952
945
948
948
952
954
951
950
951
951
956
959
960
959
959
958
963
968
969
968
967
970
972
977
979
977
978
984
989
990
992
993
994
997
1001
1007
1005
1006
1006
1007
1013
1017
1021
1020
1020
1024
1027
1033
1033
1030
1031
1032
1035
1035
1029
1023
1017
1013
1010
1009
1005
997
996
993
990
988
982
980
973
974
973
969
968
963
964
962
964
966
966
959
960
960
963
964
961
959
956
958
962
966
965
958
955
958
959
963
962
957
954
954
958
964
963
960
957
960
962
965
964
961
959
960
963
965
965
961
961
961
964
964
962
963
961
963
964
966
966
964
961
962
961
965
964
964
961
961
966
967
966
962
961
963
966
965
969
965
964
965
964
967
968
968
966
965
970
973
968
968
966
969
972
978
978
975
973
979
982
985
984
982
982
984
989
990
995
991
991
993
994
996
994
989
989
990
992
992
990
986
986
985
987
990
989
984
981
981
986
988
985
981
979
977
983
987
988
984
982
981
982
985
985
981
982
982
986
987
988
984
981
982
987
988
985
986
982
984
988
987
987
986
987
986
987
990
989
986
987
985
987
992
992
991
993
999
1010
1019
1028
1038
1049
1062
1076
1080
1079
1068
1049
1033
1024
1024
1033
1054
1082
1112
1135
1154
1147
1128
1100
1079
1065
1045
1024
995
973
958
951
950
953
953
959
965
976
980
983
982
981
978
982
984
984
983
980
980
984
987
986
983
979
983
985
986
984
981
981
981
984
986
984
988
988
990
992
996
997
993
993
996
999
1001
1001
999
1000
999
1005
1010
1009
1007
1006
1007
1011
1017
1017
1016
1014
1016
1020
1024
1026
1025
1028
1028
1036
1036
1039
1039
1041
1043
1047
1054
1053
1053
1056
1058
1063
1067
1069
1067
1064
1065
1067
1068
1062
1057
1048
1047
1043
1042
1036
1031
1022
1021
1020
1017
1012
1007
1008
1006
1008
1009
1006
1000
999
998
1002
1002
999
999
996
994
997
997
1000
994
995
992
995
999
993
994
993
995
997
999
998
998
996
997
1001
1001
1002
997
997
999
1002
1004
1004
1001
997
998
1002
1002
1002
1000
1000
1002
1003
1003
1005
999
997
998
1000
1002
1001
997
997
992
1001
1001
1002
999
996
995
997
1002
999
996
992
994
998
999
999
996
992
995
998
999
997
995
992
995
995
998
993
994
994
992
998
999
996
996
994
996
1001
1004
1003
1003
1002
1004
1004
1006
1007
1006
1005
1008
1012
1015
1014
1010
1010
1010
1011
1011
1011
1007
1003
1003
1002
1005
1001
1000
997
997
998
998
995
994
988
991
992
995
994
990
986
987
986
993
992
988
985
984
985
985
987
981
981
983
987
987
986
984
981
984
985
989
986
984
984
979
984
988
986
987
984
983
984
989
990
987
984
989
992
993
991
990
987
991
998
1003
1005
1010
1017
1034
1051
1073
1087
1091
1088
1085
1075
1065
1053
1046
1049
1063
1087
1111
1140
1161
1179
1194
1202
1197
1180
1156
1132
1117
1105
1087
1065
1038
1011
989
971
962
951
943
941
945
954
965
971
971
969
974
976
979
979
978
977
977
981
983
982
980
979
979
982
982
980
981
981
983
986
988
986
984
985
986
987
992
987
985
987
990
994
994
992
992
995
996
1000
1006
1005
1006
1003
1007
1011
1014
1016
1011
1014
1017
1021
1026
1027
1026
1027
1030
1036
1042
1043
1043
1043
1046
1050
1055
1059
1057
1058
1061
1065
1071
1073
1072
1070
1069
1067
1067
1064
1057
1051
1044
1043
1040
1034
1028
1021
1018
1020
1018
1016
1011
1006
1006
1009
1010
1007
999
1003
1000
1004
1004
1004
1001
996
998
1001
1004
1002
999
997
996
998
1002
1002
1001
998
999
999
1004
1001
1000
999
998
1002
1002
1002
1001
999
1000
1000
1002
1002
997
996
996
1001
1000
1001
1000
997
995
999
1001
1000
998
996
997
999
1002
997
998
993
993
1000
1000
1001
997
994
993
998
1000
997
996
994
993
996
1000
1000
995
993
993
994
999
996
992
991
990
992
997
995
993
990
991
992
994
995
996
996
998
1000
1004
1002
1001
997
999
1002
1009
1008
1007
1005
1006
1007
1009
1006
1004
999
1001
1000
999
1001
996
993
992
992
994
993
991
987
985
990
992
990
983
981
980
981
981
983
981
977
977
973
980
977
974
973
973
976
976
976
974
971
973
973
975
975
972
969
969
970
974
972
968
971
970
972
972
969
970
967
968
973
975
971
972
968
970
976
978
982
984
992
1004
1022
1039
1052
1055
1055
1051
1039
1021
998
984
978
992
1017
1042
1073
1096
1114
1127
1135
1128
1109
1083
1056
1031
1014
997
976
952
934
921
912
909
905
903
904
910
923
934
939
941
942
944
949
951
949
944
943
945
950
953
952
948
945
948
950
951
949
955
953
954
956
956
954
952
953
954
958
961
961
960
958
961
966
970
971
967
970
969
974
978
980
980
976
980
984
990
992
992
990
995
1003
1008
1006
1008
1009
1012
1017
1021
1022
1023
1022
1025
1026
1031
1031
1033
1033
1035
1039
1043
1038
1031
1024
1021
1022
1019
1013
1004
998
993
992
990
986
977
973
974
975
973
969
967
962
964
964
965
962
961
959
958
961
964
963
960
955
958
961
962
962
960
957
958
961
965
965
963
957
962
964
965
965
965
959
961
963
966
965
963
961
964
966
970
968
965
966
965
966
972
966
970
966
967
968
970
971
967
966
970
972
975
975
972
971
970
972
977
975
973
969
971
973
977
978
974
973
974
976
980
974
975
973
973
974
979
980
981
980
981
985
988
987
986
984
986
990
995
996
996
995
994
994
996
995
990
989
989
991
993
990
987
984
982
982
986
985
984
978
979
981
981
981
978
973
971
972
979
977
977
973
973
974
975
976
974
971
971
973
976
971
972
970
970
973
975
973
970
969
970
972
975
974
973
969
971
972
975
975
971
971
971
973
974
974
973
974
976
980
987
992
995
997
1013
1028
1048
1062
1065
1065
1060
1053
1040
1025
1017
1020
1037
1061
1087
1113
1134
1149
1159
1161
1147
1127
1103
1086
1069
1057
1037
1012
986
963
949
940
934
926
926
928
936
943
953
956
961
958
959
960
963
961
960
958
959
961
963
963
964
960
960
963
967
965
963
961
962
966
970
966
968
967
970
973
974
975
973
971
973
975
979
981
979
979
983
986
989
989
990
991
989
993
1002
1006
1005
1001
1006
1012
1018
1018
1018
1018
1022
1027
1030
1031
1032
1031
1033
1041
1045
1047
1045
1044
1046
1046
1048
1039
1033
1026
1022
1019
1016
1008
1000
993
992
992
992
987
984
976
975
973
976
975
968
964
964
967
968
966
963
961
957
957
963
963
959
958
957
960
961
961
959
955
957
959
965
962
956
957
957
961
964
964
962
959
960
960
963
962
958
956
955
957
960
960
957
954
953
957
959
959
954
952
954
956
958
956
953
953
952
951
953
956
953
951
951
955
959
954
954
952
954
954
958
957
956
955
954
955
960
959
959
956
955
960
964
965
966
963
963
968
972
969
969
968
971
973
978
980
979
976
977
977
980
978
973
971
970
974
977
976
970
968
969
970
973
972
969
964
966
968
968
969
964
961
961
965
966
970
966
963
965
964
964
966
964
961
962
965
968
965
966
963
964
965
969
968
965
964
964
967
971
969
967
965
965
967
970
970
967
965
962
967
972
972
970
968
969
973
975
977
978
983
987
993
1005
1016
1026
1036
1049
1061
1068
1069
1060
1047
1035
1024
1019
1021
1028
1042
1069
1096
1122
1141
1150
1147
1138
1120
1105
1085
1065
1047
1028
1008
991
970
950
936
925
922
928
928
934
937
942
953
957
962
960
956
960
958
963
966
963
962
963
966
969
968
963
960
963
966
972
971
969
966
967
968
972
974
970
969
971
975
977
977
976
976
976
981
985
983
985
984
986
988
992
992
988
988
991
995
998
1002
1003
1001
1002
1009
1011
1013
1010
1013
1011
1018
1023
1025
1026
1025
1025
1029
1036
1036
1038
1038
1045
1049
1055
1058
1057
1056
1056
1059
1061
1055
1048
1040
1038
1037
1033
1030
1018
1015
1013
1010
1009
1006
1000
994
993
992
993
992
988
985
985
983
986
984
981
979
976
980
983
982
979
979
978
980
982
982
980
977
976
978
980
982
979
973
977
981
982
981
980
977
978
981
985
985
982
979
982
983
985
982
981
981
981
985
985
984
984
981
983
984
985
986
980
979
978
981
984
984
978
976
976
978
983
981
979
975
975
979
981
980
977
975
974
977
981
981
979
976
976
978
981
978
978
978
975
977
978
981
979
976
979
981
984
983
982
981
984
988
991
990
988
985
987
990
994
993
993
991
994
995
999
1000
996
991
989
993
992
990
986
984
982
985
984
983
981
977
974
979
980
980
975
974
971
975
976
975
969
970
966
972
975
973
970
965
965
966
970
970
967
964
962
964
967
968
965
964
964
966
970
968
966
965
965
965
969
967
962
962
965
967
969
969
965
965
967
968
970
972
971
971
975
981
987
992
1002
1007
1026
1041
1055
1062
1061
1052
1041
1028
1019
1012
1013
1023
1044
1072
1105
1132
1152
1166
1171
1167
1154
1134
1114
1095
1074
1058
1037
1009
982
954
944
933
927
925
921
924
932
941
952
954
956
955
957
961
962
963
959
959
960
962
962
964
963
960
962
963
967
967
964
964
965
966
969
968
969
967
967
973
976
974
975
970
975
978
982
983
982
981
981
983
991
991
989
986
992
995
1002
1002
1002
999
1004
1009
1014
1015
1014
1018
1021
1024
1031
1031
1030
1030
1031
1037
1042
1043
1042
1043
1047
1052
1055
1055
1054
1054
1055
1057
1058
1053
1052
1046
1042
1042
1041
1034
1027
1019
1016
1014
1012
1010
1002
999
996
997
999
995
994
992
987
987
990
988
985
982
981
984
988
987
982
979
978
982
985
984
981
976
975
981
984
982
980
978
980
981
983
984
982
981
980
982
984
981
979
977
977
981
983
986
983
980
982
982
983
981
979
978
978
981
982
981
979
979
976
980
982
982
980
976
977
980
981
982
980
973
975
976
980
979
978
973
975
977
980
978
977
975
974
978
975
975
974
974
973
974
976
978
975
973
969
973
977
977
973
971
972
976
977
977
975
974
975
980
984
986
985
982
983
984
988
989
989
989
988
992
996
1000
995
995
993
993
998
996
994
991
987
992
993
989
985
981
981
981
984
984
982
980
980
980
983
980
978
975
973
974
979
978
975
973
972
975
974
974
971
969
970
973
975
974
971
967
969
972
974
974
972
970
969
968
972
971
970
970
971
971
976
976
973
971
971
971
977
977
974
975
974
976
982
981
980
978
980
987
992
997
1004
1016
1030
1044
1054
1059
1059
1049
1037
1024
1010
1002
1004
1020
1042
1075
1105
1131
1153
1165
1172
1168
1156
1134
1109
1088
1067
1042
1015
986
959
939
927
921
920
920
920
923
931
943
955
960
964
961
961
966
973
968
971
968
970
973
976
976
974
974
972
977
980
978
977
975
975
980
986
984
983
981
981
986
988
989
985
985
986
991
991
994
993
992
995
1000
1004
1006
1008
1006
1005
1012
1018
1016
1016
1014
1016
1023
1028
1030
1030
1031
1031
1037
1042
1042
1042
1044
1045
1050
1051
1056
1056
1050
1054
1057
1062
1063
1063
1060
1063
1063
1066
1063
1060
1055
1048
1047
1041
1038
1029
1023
1019
1016
1015
1011
1003
995
993
989
992
989
985
977
978
979
981
978
973
969
971
974
972
971
967
966
963
965
970
969
966
963
962
966
964
966
963
961
961
965
965
963
960
960
962
965
968
966
964
961
958
959
958
963
960
959
958
960
964
961
961
957
957
957
959
961
958
955
953
955
958
959
957
956
954
956
954
958
955
952
951
954
956
955
954
949
950
950
954
953
954
952
952
952
952
954
953
948
948
950
953
953
950
945
946
949
954
951
951
948
945
952
953
956
953
951
952
957
959
960
955
954
956
960
965
965
966
961
962
965
962
961
962
960
959
960
959
959
955
951
952
952
955
953
951
950
950
948
948
948
943
939
939
944
947
947
946
945
945
947
949
947
943
940
941
942
944
945
946
945
942
947
948
948
945
944
946
947
950
952
951
948
947
948
955
957
958
959
958
962
966
965
963
962
964
968
973
981
988
1001
1017
1035
1050
1054
1053
1044
1031
1009
999
988
983
992
1012
1038
1069
1090
1108
1118
1124
1118
1109
1093
1075
1055
1036
1020
1001
981
960
946
939
936
936
934
931
933
940
951
960
963
961
952
955
957
961
962
959
960
962
966
971
970
968
968
967
970
974
973
972
969
972
974
977
976
978
977
976
980
983
986
985
983
986
991
995
996
993
993
994
997
1006
1007
1009
1007
1011
1015
1021
1023
1020
1022
1025
1030
1035
1042
1038
1036
1039
1045
1051
1054
1054
1054
1059
1062
1067
1068
1069
1069
1071
1074
1080
1082
1077
1078
1074
1073
1077
1072
1064
1057
1053
1052
1051
1041
1040
1032
1028
1027
1027
1024
1020
1015
1011
1011
1012
1010
1010
1006
1005
1008
1008
1007
1006
1002
999
1000
1005
1000
1001
1000
999
1000
1006
1006
1001
999
999
1004
1008
1005
1003
1000
1002
1004
1008
1011
1006
1005
1005
1006
1010
1011
1009
1006
1006
1007
1009
1013
1011
1006
1008
1010
1013
1014
1010
1011
1009
1015
1018
1016
1012
1007
1009
1005
1008
1007
1005
1002
998
1000
1004
1004
1003
1001
998
1000
1003
1001
1002
1001
1000
1002
1003
1002
999
996
996
1001
1005
1010
1010
1008
1006
1005
1004
1000
996
994
997
1003
1007
1007
1007
1007
1004
1008
1012
1011
1010
1010
1011
1014
1017
1017
1016
1012
1011
1012
1015
1014
1012
1012
1012
1013
1014
1013
1006
1005
1001
1005
1009
1005
1004
1001
999
999
1002
1001
998
996
993
993
995
998
995
995
991
994
996
997
996
992
995
997
997
993
995
991
989
995
996
998
997
995
993
995
997
997
996
995
996
995
1000
998
1000
993
995
996
1001
999
1001
1001
1002
1007
1015
1020
1023
1027
1040
1058
1074
1090
1096
1096
1091
1081
1065
1054
1044
1045
1060
1087
1119
1148
1170
1184
1195
1200
1189
1167
1145
1123
1108
1089
1063
1038
1010
991
978
973
971
967
966
967
970
977
986
991
995
994
994
995
995
994
989
989
989
992
993
995
993
992
994
998
1000
1003
1007
1002
1007
1009
1012
1010
1007
1006
1003
1008
1012
1014
1014
1012
1011
1017
1020
1023
1018
1015
1015
1022
1023
1030
1031
1031
1034
1038
1041
1045
1045
1045
1046
1052
1057
1059
1059
1058
1060
1065
1070
1073
1072
1073
1073
1081
1085
1087
1088
1089
1092
1095
1100
1102
1099
1095
1092
1089
1088
1082
1078
1069
1066
1061
1059
1055
1050
1045
1042
1044
1042
1040
1039
1036
1032
1033
1035
1034
1031
1028
1025
1030
1032
1031
1029
1028
1026
1027
1030
1031
1027
1022
1023
1028
1031
1029
1030
1027
1025
1028
1031
1033
1031
1028
1026
1027
1033
1031
1029
1028
1027
1031
1033
1033
1031
1027
1027
1029
1037
1037
1033
1029
1022
1025
1028
1030
1028
1025
1026
1027
1027
1030
1030
1028
1024
1028
1033
1033
1034
1028
1024
1026
1027
1024
1024
1023
1022
1023
1028
