984
984
984
984
984
984
984
984
986
989
986
983
982
984
985
982
978
977
975
977
978
978
975
970
972
976
979
980
979
979
979
979
980
977
972
972
972
972
973
973
972
972
971
974
976
973
971
968
972
973
974
975
974
973
975
976
974
975
971
970
974
974
975
974
973
973
976
975
971
972
970
968
968
971
971
972
971
973
975
978
978
977
978
977
981
986
989
989
985
979
979
979
978
981
979
979
983
991
997
997
995
991
990
990
987
983
979
978
985
993
1000
1010
1023
1067
1139
1193
1184
1129
1079
1060
1063
1070
1075
1080
1081
1084
1088
1092
1095
1093
1090
1088
1092
1100
1104
1106
1103
1097
1091
1086
1076
1063
1049
1034
1017
998
974
953
940
937
945
948
946
943
936
931
930
932
937
940
943
948
956
962
965
963
962
960
960
962
962
963
966
966
971
972
976
975
976
977
981
984
985
983
981
984
984
986
986
986
987
985
987
989
991
990
990
992
994
996
997
997
994
994
996
998
1000
1000
1001
1001
1004
1006
1007
1008
1006
1006
1008
1012
1012
1014
1015
1010
1013
1013
1016
1016
1015
1014
1014
1014
1014
1014
1014
1011
1011
1011
1010
1010
1006
1003
1003
1003
1002
1002
996
994
994
993
994
993
987
987
988
987
989
986
983
979
980
983
984
981
979
979
978
978
979
979
978
976
975
978
977
978
975
974
978
977
978
977
974
975
975
977
976
978
977
975
977
978
979
980
980
977
978
980
983
979
978
978
978
981
981
980
977
976
977
978
979
978
974
973
975
976
976
976
973
973
972
975
975
974
971
969
970
974
973
970
969
967
967
971
969
969
968
966
969
969
971
969
966
963
964
966
967
967
965
963
966
965
969
969
963
965
964
967
968
966
963
964
963
966
965
966
963
962
962
966
966
964
965
963
964
965
966
966
965
964
967
968
967
969
963
965
966
967
968
967
964
963
963
966
966
968
967
967
969
970
972
972
973
973
978
986
993
1004
1026
1072
1150
1207
1201
1143
1088
1064
1062
1066
1065
1066
1063
1062
1064
1069
1070
1068
1065
1061
1063
1060
1059
1055
1047
1038
1033
1024
1016
1003
993
981
968
954
943
934
936
946
958
967
968
963
959
951
952
954
957
962
966
966
966
962
960
957
956
955
953
957
957
957
956
955
958
960
963
964
964
964
966
967
967
968
966
968
967
971
971
970
971
970
971
974
975
975
975
974
974
979
979
978
977
975
981
982
985
984
984
983
985
990
992
991
992
991
995
997
997
997
998
997
999
1000
1002
999
999
997
998
999
1000
999
998
996
997
997
998
997
994
992
992
995
994
993
989
986
987
987
987
986
983
983
983
984
983
982
978
980
979
981
980
980
978
979
980
979
978
978
977
976
979
979
979
980
979
977
979
980
982
981
978
977
979
982
982
980
980
978
979
981
980
981
978
978
980
982
981
981
979
979
979
981
980
977
976
977
976
978
979
978
976
975
975
976
978
976
975
974
974
975
976
976
973
970
973
973
975
973
972
970
971
971
971
973
971
970
969
972
972
971
970
970
969
972
973
971
968
966
967
970
971
970
968
966
966
969
971
970
966
968
969
972
972
970
967
967
970
971
970
971
967
967
968
971
971
970
970
970
971
971
971
970
970
968
968
972
973
973
972
971
973
975
977
976
978
977
985
994
1000
1017
1058
1127
1198
1198
1138
1079
1055
1054
1059
1060
1059
1056
1056
1056
1058
1057
1055
1051
1047
1047
1048
1046
1042
1032
1024
1012
1002
992
983
970
957
939
923
918
920
928
935
943
949
955
957
956
958
960
965
970
973
979
980
979
973
970
966
963
962
959
960
962
966
965
963
961
963
963
964
964
963
961
963
965
965
962
961
961
960
963
964
961
962
961
963
965
966
964
964
965
965
969
972
968
968
970
972
973
975
976
975
975
977
983
982
984
982
983
988
991
993
993
993
993
996
997
1001
999
999
997
1000
999
1002
1001
998
997
998
1001
999
1001
1000
996
999
998
999
997
995
994
994
995
994
989
988
984
986
986
987
984
982
980
982
982
979
979
978
977
979
979
980
979
975
974
976
977
978
979
976
976
977
976
977
975
973
972
973
975
973
973
973
972
973
976
976
975
971
967
968
969
973
975
974
971
974
974
974
973
969
966
967
966
970
969
968
967
967
966
967
964
965
964
966
966
969
967
962
963
962
963
964
963
963
961
964
965
965
965
962
958
963
964
966
966
964
962
963
964
965
964
963
961
964
963
964
966
963
961
963
963
965
965
963
963
965
963
965
965
961
962
961
964
965
963
962
960
962
964
967
968
967
966
966
970
970
968
965
963
966
966
967
967
967
965
965
968
970
970
969
970
974
976
978
979
984
990
1005
1035
1094
1167
1200
1164
1102
1065
1054
1054
1053
1049
1046
1049
1051
1052
1048
1046
1042
1042
1042
1040
1036
1033
1031
1022
1015
1004
990
980
971
962
949
932
914
904
904
906
910
919
924
927
928
927
926
928
927
934
940
949
957
960
961
960
960
963
965
964
965
968
970
973
974
978
979
980
982
981
979
977
975
979
982
982
985
984
981
981
980
979
978
978
974
975
974
976
977
977
975
976
975
973
972
969
969
972
973
973
972
971
971
974
976
977
979
978
978
981
982
980
982
981
982
985
989
994
995
993
992
991
995
996
998
999
1003
1004
1007
1009
1008
1003
1004
1005
1005
1007
1006
1004
1001
1004
1006
1006
1005
1001
999
1000
1002
1001
1000
1000
996
996
997
996
992
990
988
989
989
991
988
986
984
984
987
985
988
983
981
981
982
982
980
978
977
978
980
980
979
978
977
978
979
979
977
976
973
976
978
978
977
973
972
974
975
975
975
974
972
972
976
974
972
974
972
973
975
975
972
972
973
972
972
973
971
969
968
970
971
972
969
969
967
968
970
969
969
966
964
967
968
968
966
966
964
964
969
967
967
965
963
964
966
967
967
963
963
964
966
964
965
961
961
962
964
964
963
963
960
964
965
965
964
961
960
962
963
966
964
962
961
963
964
964
965
961
961
961
964
965
963
961
961
963
965
964
965
960
960
966
964
965
964
965
964
964
964
964
966
963
964
962
964
967
965
963
962
966
969
970
970
967
968
971
974
978
983
990
998
1021
1067
1140
1193
1187
1132
1078
1055
1051
1052
1051
1052
1052
1054
1057
1056
1056
1058
1058
1056
1053
1049
1049
1044
1044
1040
1034
1028
1018
1008
998
992
980
968
956
942
928
918
911
913
919
926
931
935
934
935
935
934
938
942
944
947
950
956
963
968
968
965
960
959
960
960
959
960
958
959
960
965
965
966
966
966
969
969
967
969
971
971
974
974
975
975
974
976
979
978
979
978
979
977
981
984
988
987
988
989
989
989
988
984
980
978
979
977
976
973
974
973
976
978
977
978
976
976
978
981
979
980
982
982
985
985
987
986
986
987
990
991
990
992
990
991
995
994
995
994
993
992
992
994
993
994
991
989
991
991
989
987
983
983
984
985
984
981
981
979
980
982
981
981
976
975
974
976
975
974
972
972
972
974
975
973
974
971
970
975
973
974
971
969
969
971
968
968
967
966
969
970
967
969
966
965
970
969
969
967
966
965
966
966
965
963
963
962
964
966
967
963
965
962
962
964
963
961
959
960
963
963
960
961
958
959
959
961
963
960
956
958
960
960
960
959
957
957
955
958
960
959
956
955
956
960
961
957
955
957
957
958
957
957
956
956
958
960
958
957
955
954
957
959
960
958
956
955
958
959
959
957
955
956
955
960
961
958
957
956
958
958
959
960
957
958
959
961
961
958
956
958
959
962
963
962
962
959
961
964
964
963
962
962
964
966
968
969
971
971
978
988
1002
1025
1076
1153
1202
1184
1115
1062
1044
1043
1048
1048
1046
1045
1046
1044
1048
1048
1049
1043
1039
1036
1037
1040
1036
1030
1021
1014
1008
1001
990
979
966
954
943
931
915
904
899
906
914
923
929
933
932
933
932
935
936
938
942
946
956
965
965
964
961
953
958
958
955
953
954
954
958
960
965
963
963
962
962
964
966
968
966
967
967
969
972
970
970
970
973
973
972
972
973
971
972
976
976
976
976
974
976
979
982
980
981
981
984
984
985
984
984
985
987
990
992
994
994
992
995
996
996
996
996
996
997
999
999
1002
1001
999
1006
1008
1008
1008
1006
1005
1007
1008
1009
1008
1006
1007
1007
1008
1006
1004
1002
997
998
999
997
994
989
986
984
984
985
982
978
980
978
980
980
975
970
973
973
974
973
972
973
971
971
974
973
973
970
969
970
971
970
971
969
968
969
970
969
967
965
965
966
969
967
963
964
965
965
966
966
966
963
962
961
965
963
962
961
958
960
960
961
958
955
956
957
959
957
959
958
956
957
960
958
957
957
955
957
958
958
956
954
956
956
958
959
958
956
956
957
958
958
958
956
954
956
958
958
958
957
956
955
958
957
957
956
957
959
960
960
960
958
960
961
962
960
958
957
957
960
961
958
959
961
962
963
967
965
965
963
960
963
968
969
967
966
964
966
967
968
965
965
965
967
967
968
968
968
969
970
972
978
982
992
1007
1043
1108
1186
1211
1171
1101
1061
1052
1054
1055
1053
1053
1053
1054
1055
1052
1050
1046
1047
1046
1049
1047
1044
1037
1032
1028
1022
1010
996
985
974
965
951
933
918
908
912
918
929
933
932
932
930
931
933
938
939
947
958
966
970
968
961
960
962
960
960
960
961
961
967
973
975
974
972
974
974
977
977
975
976
975
978
980
982
977
978
979
983
985
982
987
985
985
988
989
989
991
986
987
989
991
992
991
995
995
998
1001
1001
1002
1001
1002
1003
1005
1006
1005
1008
1005
1009
1011
1011
1011
1010
1012
1015
1016
1018
1019
1018
1015
1020
1019
1020
1019
1014
1016
1017
1022
1023
1022
1018
1018
1018
1015
1016
1013
1012
1007
1005
1005
1005
1002
1002
1002
1000
1000
998
996
992
990
991
990
987
987
984
983
984
987
986
984
986
984
987
988
987
986
983
980
982
984
984
985
983
984
985
984
984
981
980
981
983
985
985
983
979
979
977
979
979
979
977
975
975
975
975
975
975
973
974
975
972
972
971
970
973
973
972
973
973
971
972
974
968
971
971
969
971
971
971
969
970
968
971
973
974
969
968
969
969
970
969
972
970
971
969
973
973
972
971
970
972
974
972
973
971
972
974
976
974
973
972
972
973
974
973
975
970
969
970
973
973
972
971
972
972
973
975
975
973
972
973
973
974
974
972
971
973
976
975
975
974
973
976
979
980
980
979
979
989
1001
1017
1055
1126
1200
1215
1161
1093
1061
1055
1059
1062
1063
1063
1061
1062
1062
1064
1063
1057
1052
1051
1050
1050
1049
1041
1033
1021
1009
1000
990
976
960
946
928
913
908
909
916
922
927
930
934
934
936
937
941
950
956
967
971
968
967
966
967
965
963
961
963
967
970
974
972
972
971
972
976
977
975
975
974
974
979
980
977
974
975
978
980
981
981
976
979
982
985
984
983
978
981
983
985
986
987
987
989
991
992
993
992
992
992
998
998
1000
999
1000
1002
1005
1008
1009
1006
1005
1004
1010
1010
1008
1007
1008
1009
1014
1015
1013
1012
1011
1009
1012
1012
1012
1010
1008
1004
1004
1007
1005
1002
999
996
997
996
998
996
993
990
991
991
991
990
988
989
988
989
989
987
985
984
986
987
986
984
981
979
982
984
983
981
983
980
982
984
982
982
981
980
982
985
982
981
977
976
978
980
980
978
975
974
975
976
979
978
979
977
980
982
980
978
978
980
982
986
985
984
978
977
978
980
980
978
978
975
976
976
975
972
968
963
967
968
968
967
965
962
965
967
969
965
962
962
961
965
965
961
960
960
963
965
964
960
961
961
963
965
963
962
962
962
964
964
964
961
960
962
963
965
965
964
965
962
963
963
965
964
964
964
965
967
967
966
962
963
966
967
966
964
966
964
967
967
967
967
968
969
970
974
974
973
974
978
986
998
1018
1069
1141
1181
1154
1092
1054
1046
1048
1055
1055
1055
1054
1055
1056
1057
1055
1053
1049
1051
1051
1051
1049
1046
1039
1032
1020
1009
1000
990
978
967
949
931
928
932
943
950
951
951
952
951
949
948
944
945
948
953
958
959
960
958
958
960
959
957
954
952
954
954
955
959
959
957
961
964
967
965
964
962
965
969
969
970
967
966
970
974
971
971
968
969
969
973
973
973
972
971
975
976
977
976
976
976
979
981
982
980
983
985
986
990
989
989
988
988
995
996
995
996
996
995
1000
1003
1002
1000
999
1000
1001
1005
1005
1002
1002
1001
1002
1003
1003
1002
1001
997
999
1000
998
998
995
994
994
995
994
993
989
987
990
988
990
986
986
985
986
988
986
984
982
984
985
987
988
984
982
983
984
987
984
983
982
983
983
984
984
982
982
980
984
986
984
982
981
979
981
985
983
982
980
980
982
984
982
981
981
980
981
982
982
981
981
978
981
982
981
979
978
975
979
980
979
978
975
976
977
979
979
977
976
974
976
979
978
976
975
973
974
975
975
974
972
971
975
975
975
975
970
971
972
973
972
971
969
967
970
970
970
969
970
972
975
978
978
975
975
976
979
982
981
980
981
977
977
979
978
979
977
976
978
980
976
976
972
972
970
971
973
971
968
971
972
972
972
971
970
969
973
974
972
971
970
971
973
977
979
980
985
992
1003
1026
1086
1160
1189
1143
1083
1053
1050
1056
1061
1062
1066
1073
1076
1077
1082
1084
1085
1088
1090
1093
1097
1100
1100
1106
1103
1103
1093
1081
1070
1063
1055
1037
1017
998
992
996
998
997
996
991
990
986
979
967
960
955
955
954
952
950
944
943
945
950
950
951
945
946
942
945
944
946
944
945
948
954
957
957
956
954
957
961
959
958
958
959
961
963
961
960
960
960
960
963
965
961
964
965
968
969
966
967
964
965
968
972
970
970
970
973
976
979
981
983
982
982
984
988
991
991
991
990
994
995
995
997
995
996
995
999
998
996
995
992
994
997
995
993
991
990
992
995
992
990
986
986
988
989
990
985
982
981
982
982
980
979
977
977
980
981
980
981
980
978
977
980
978
975
974
976
978
981
978
976
975
975
978
979
979
977
978
978
979
983
981
979
976
974
977
981
979
979
977
974
975
977
976
972
973
974
976
979
976
974
972
971
973
977
972
972
972
969
973
973
970
968
969
967
968
971
967
967
965
966
967
971
969
969
966
968
970
970
969
968
964
963
963
968
965
967
964
961
962
964
966
965
963
962
964
965
966
967
964
965
964
968
968
967
962
964
965
971
970
966
964
967
969
968
968
963
964
964
963
967
967
961
960
961
963
967
966
965
966
962
967
970
970
972
973
973
977
979
979
980
981
986
990
995
999
1007
1036
1106
1186
1212
1164
1097
1060
1052
1058
1060
1055
1048
1047
1046
1053
1056
1054
1050
1049
1048
1053
1057
1054
1052
1044
1040
1040
1035
1024
1021
1008
997
982
968
950
941
942
947
954
958
955
950
943
940
939
942
945
953
956
961
968
969
963
960
956
954
955
960
958
960
960
962
967
969
971
969
971
972
973
976
975
974
977
975
978
982
983
981
980
981
982
982
984
984
983
984
983
987
989
990
992
992
997
1000
999
996
996
998
1002
1002
1003
1004
1004
1003
1006
1011
1009
1012
1011
1010
1014
1016
1014
1016
1014
1014
1017
1018
1017
1012
1011
1011
1012
1016
1012
1010
1009
1004
1004
1004
1001
1000
997
995
997
997
995
992
991
991
991
990
992
985
988
984
985
986
984
981
980
979
980
983
983
983
980
980
980
984
982
981
980
980
980
982
982
978
977
977
979
980
980
979
975
975
977
977
980
979
980
977
979
980
975
976
973
972
974
978
979
974
973
975
978
979
977
975
974
973
972
975
974
972
966
967
969
971
969
968
967
967
968
971
970
968
964
963
964
965
967
967
966
965
964
966
965
962
963
959
962
966
963
962
959
958
961
964
964
961
960
958
960
963
963
959
959
959
960
962
961
960
960
957
959
960
959
958
956
957
957
959
960
956
954
954
955
957
954
954
953
953
953
957
954
954
951
952
953
955
955
953
953
953
955
959
959
957
955
957
957
962
958
959
961
963
966
976
979
987
1004
1046
1119
1176
1170
1113
1060
1040
1041
1046
1046
1044
1044
1044
1047
1050
1050
1042
1036
1032
1035
1033
1034
1030
1023
1018
1011
1009
996
984
977
968
959
949
934
919
908
910
918
930
936
939
941
939
936
936
934
931
931
936
942
950
954
953
947
944
942
943
941
937
934
934
936
938
937
938
936
940
942
945
946
945
944
945
949
949
949
948
949
950
952
956
953
952
950
955
955
958
957
958
956
958
956
958
960
962
959
959
963
966
966
965
964
965
966
972
971
969
969
969
973
978
975
974
974
976
978
979
979
977
979
982
982
983
984
983
981
983
985
984
983
982
981
978
982
985
982
979
979
979
978
977
976
975
973
973
973
974
973
970
966
967
967
968
965
964
961
959
962
964
964
962
958
958
960
959
961
959
957
956
957
959
959
959
956
956
956
958
958
957
957
956
957
957
958
957
957
955
956
960
962
958
954
956
958
957
961
960
957
958
958
959
960
958
958
955
957
958
957
956
956
956
954
956
956
954
953
955
956
957
954
953
953
948
950
953
954
950
950
952
952
953
953
952
949
950
951
953
951
948
945
948
948
948
949
948
945
945
946
950
949
947
945
945
947
949
949
949
943
945
947
949
948
948
945
943
945
947
948
945
944
943
944
947
945
945
942
943
943
944
945
944
945
944
947
950
948
947
945
944
944
946
948
944
945
946
949
947
946
947
944
947
948
950
947
947
944
946
948
950
950
949
948
952
954
960
963
969
979
1005
1066
1141
1166
1129
1068
1034
1031
1034
1033
1029
1027
1027
1027
1029
1030
1026
1022
1019
1016
1020
1019
1018
1014
1009
1007
1003
997
986
973
959
944
936
924
908
890
880
884
894
905
911
919
924
924
926
923
922
920
924
928
937
946
949
948
945
944
942
938
936
934
935
935
938
936
936
935
935
936
938
940
938
938
938
941
940
940
940
938
942
939
944
944
943
941
941
943
946
943
943
944
946
949
950
953
951
949
949
955
958
955
956
958
958
961
965
967
966
965
969
970
975
976
974
974
976
978
984
984
982
981
981
984
987
989
984
982
984
987
990
990
987
985
983
982
983
984
982
979
978
980
981
980
975
973
973
974
973
973
970
966
969
968
970
967
968
965
966
965
967
967
965
963
961
964
964
965
963
959
958
962
963
963
961
956
957
961
960
962
959
958
958
959
963
961
959
956
955
959
962
960
958
957
958
960
959
957
957
954
955
959
958
959
957
952
952
953
954
955
952
951
951
955
956
954
954
951
950
953
952
951
949
947
946
951
952
950
948
946
950
951
950
952
951
947
949
949
949
948
948
944
949
948
950
947
947
944
946
946
949
950
950
946
949
951
951
949
947
943
945
949
952
953
954
951
954
950
951
951
948
948
949
952
954
954
954
952
954
953
955
954
951
949
950
952
953
955
951
952
952
956
956
955
952
952
954
955
958
960
961
960
963
965
970
974
977
989
1018
1081
1156
1186
1146
1083
1049
1041
1047
1049
1045
1042
1042
1044
1043
1046
1041
1036
1032
1033
1033
1031
1027
1021
1015
1012
1004
992
979
964
952
940
926
908
891
882
885
893
904
912
916
914
914
916
920
921
927
933
943
953
956
954
951
953
956
958
961
959
958
957
959
964
969
973
975
976
976
979
980
978
978
976
978
977
980
981
980
975
972
974
973
973
972
969
969
968
971
970
968
966
969
971
974
974
973
970
967
969
972
972
974
975
978
979
983
983
984
983
986
991
996
1000
999
998
997
998
998
1001
1004
1006
1004
1009
1008
1006
1004
1003
1002
1003
1006
1004
1001
1000
1000
1000
1000
999
996
995
995
995
995
994
990
989
987
988
987
984
981
979
980
984
988
982
981
979
981
982
982
981
977
976
973
978
980
978
979
976
978
975
978
977
975
973
974
978
980
976
974
972
974
974
978
977
976
973
972
975
973
973
973
970
970
971
974
975
974
971
970
970
971
970
968
971
970
968
970
970
967
966
966
967
969
968
966
963
965
966
968
968
968
962
964
964
969
967
967
965
965
964
967
966
965
963
965
966
967
966
966
962
962
964
965
965
965
964
965
966
967
968
965
964
962
966
966
966
965
965
965
965
963
965
963
963
962
963
966
965
966
964
966
967
970
968
968
966
964
970
968
967
967
964
966
969
971
973
973
972
978
984
996
1011
1050
1124
1187
1176
1113
1064
1047
1048
1054
1056
1058
1057
1056
1055
1056
1053
1051
1050
1042
1043
1039
1035
1027
1018
1009
994
984
969
958
942
924
905
896
894
902
909
914
917
919
922
925
926
931
934
940
950
960
962
961
957
955
956
957
956
955
954
956
959
961
963
963
960
963
966
966
965
965
963
966
969
970
970
970
968
969
971
972
973
972
969
971
971
974
974
973
972
974
977
978
977
977
976
979
981
983
985
982
981
985
988
992
993
992
992
995
999
1002
1002
1002
998
1003
1005
1010
1009
1009
1010
1010
1015
1016
1014
1009
1006
1008
1010
1009
1008
1005
1001
1002
1002
1000
994
989
986
985
988
985
984
981
978
980
977
979
977
974
973
973
973
974
973
971
968
967
971
970
967
964
963
968
968
969
966
965
961
964
966
966
966
964
962
962
964
965
960
963
959
961
964
963
962
963
959
959
961
961
961
959
956
958
960
962
959
956
955
955
957
955
955
953
951
950
955
952
954
952
949
949
951
953
952
950
945
946
948
949
950
951
947
948
949
951
952
949
945
947
949
949
950
950
948
948
949
950
948
945
942
945
948
948
951
948
948
945
947
949
948
948
947
944
949
948
950
947
946
944
947
950
949
946
946
947
949
949
946
946
946
948
952
953
953
953
948
949
951
954
951
950
951
951
954
957
956
954
955
958
962
966
976
989
1019
1090
1157
1160
1106
1055
1031
1034
1039
1040
1041
1038
1038
1039
1038
1035
1031
1027
1026
1024
1019
1012
1003
992
977
963
951
939
924
905
888
877
881
892
905
913
914
915
917
920
920
924
929
940
950
952
951
946
942
941
941
944
946
945
947
946
949
954
954
953
952
952
955
955
957
958
956
957
956
961
961
960
958
959
962
962
963
961
960
961
963
964
964
964
962
963
968
971
969
968
969
969
973
974
976
977
976
978
982
983
983
983
983
985
987
988
989
988
988
989
990
992
992
993
990
991
993
994
993
991
988
990
990
992
990
987
982
983
983
985
983
980
977
976
977
979
976
972
970
970
970
970
968
968
964
963
965
966
962
962
961
958
962
961
962
961
958
959
962
963
963
960
958
958
958
958
957
956
954
956
958
959
959
958
956
955
956
956
957
953
952
951
955
956
954
953
953
951
954
955
952
953
950
949
951
951
949
948
943
943
944
948
951
949
951
950
950
952
955
956
955
956
960
962
960
957
955
957
957
957
959
956
953
954
957
957
955
953
952
948
947
949
946
943
941
943
944
945
947
943
943
942
945
944
943
942
941
943
944
944
945
943
943
941
943
945
945
945
942
943
943
944
946
946
945
944
946
948
948
944
944
944
949
950
949
947
945
944
946
948
950
952
952
956
963
972
982
1004
1062
1130
1150
1109
1054
1028
1028
1035
1038
1040
1043
1043
1042
1044
1047
1045
1044
1040
1041
1047
1050
1047
1040
1034
1025
1016
1005
995
982
971
952
931
919
910
913
921
924
927
925
925
925
920
919
920
922
927
928
929
932
933
934
934
934
931
927
925
927
932
927
932
932
934
936
940
941
943
941
945
946
948
947
946
945
946
949
950
953
951
948
949
948
954
954
952
950
951
955
955
954
955
952
955
959
959
960
960
959
964
965
965
965
965
964
968
975
978
979
978
979
979
979
982
984
980
978
982
983
983
985
984
981
983
986
986
985
983
984
986
986
987
983
982
979
981
979
978
974
975
974
973
972
974
974
969
969
970
970
971
970
970
968
968
964
967
965
963
962
964
967
968
965
967
962
963
962
965
967
964
961
963
965
970
967
968
966
969
968
971
970
968
966
967
966
966
962
963
963
963
963
963
963
960
963
965
968
968
965
962
959
962
962
962
958
960
960
960
962
965
964
964
961
960
962
962
961
959
956
957
958
960
958
959
954
957
957
959
962
961
961
963
964
967
961
962
958
961
961
964
964
962
959
960
959
957
955
952
951
953
960
964
966
965
963
963
964
966
962
962
963
964
967
965
963
962
959
957
962
964
962
961
960
958
962
965
966
967
965
970
973
977
976
975
977
978
983
983
981
980
978
980
981
984
984
985
987
994
1007
1022
1063
1134
1197
1202
1146
1090
1061
1057
1055
1060
1061
1062
1065
1062
1065
1067
1069
1070
1070
1073
1073
1074
1076
1072
1067
1060
1052
1046
1038
1027
1015
997
974
952
936
929
930
934
935
937
935
932
926
920
921
923
930
939
944
950
950
951
948
949
947
946
946
946
950
952
952
952
953
955
957
960
961
960
958
961
963
966
967
966
963
965
968
972
972
971
969
970
974
975
975
974
971
974
977
979
979
978
976
979
980
981
981
981
980
985
983
987
989
988
989
991
993
994
996
995
996
995
999
1001
999
998
997
997
1001
1000
998
998
994
994
997
997
994
993
992
989
992
991
989
985
983
985
985
983
981
979
973
975
976
977
975
974
971
971
972
974
973
970
967
967
967
969
967
968
964
965
967
967
966
964
962
962
968
967
965
964
964
963
966
968
966
964
964
965
966
965
966
964
963
964
967
968
966
964
963
964
966
967
966
963
961
964
966
965
964
964
960
961
964
966
965
961
960
962
962
964
962
959
957
959
959
959
960
959
955
956
957
959
958
956
953
955
954
955
954
952
951
952
952
954
953
950
949
951
951
951
952
949
948
948
950
953
951
948
949
950
950
953
950
949
947
951
950
950
953
947
945
949
949
950
952
948
948
947
949
949
950
948
948
949
948
951
950
949
947
950
949
951
950
947
948
948
951
953
953
953
949
950
952
952
953
954
951
955
968
980
997
1030
1097
1175
1203
1157
1087
1046
1036
1041
1050
1051
1049
1048
1048
1054
1059
1056
1052
1043
1041
1043
1041
1036
1025
1015
1006
997
986
977
964
953
941
929
913
901
898
902
910
922
934
939
940
937
932
931
934
935
937
939
943
946
945
943
937
934
931
934
933
933
930
931
932
935
937
937
938
937
937
939
942
942
943
941
941
944
946
946
947
946
946
947
949
950
948
948
949
950
952
954
955
954
952
954
955
958
957
956
955
958
961
962
963
962
961
964
968
969
969
971
969
971
974
976
976
974
974
975
978
979
978
978
977
979
980
982
982
980
977
978
981
979
979
976
973
974
977
975
975
971
968
969
969
971
967
966
965
965
965
965
964
963
961
962
962
963
961
960
958
959
960
960
959
961
958
959
960
962
962
960
958
960
962
961
962
959
959
960
960
962
960
960
958
962
961
964
961
960
959
960
961
961
960
957
957
955
959
957
957
957
956
956
958
960
958
957
954
952
954
956
956
954
953
953
955
954
953
954
950
950
954
954
953
951
951
949
950
952
950
948
946
948
949
949
949
949
945
948
950
949
950
948
946
947
949
947
948
948
946
946
948
948
947
946
944
946
948
948
949
946
944
945
947
949
948
945
943
944
945
950
945
946
941
946
946
947
947
945
944
945
947
947
948
946
944
946
947
949
948
947
946
948
949
951
951
952
950
951
958
956
963
970
979
1002
1055
1129
1170
1150
1089
1047
1032
1034
1035
1034
1033
1032
1034
1036
1038
1041
1036
1035
1035
1033
1033
1029
1022
1018
1015
1006
998
985
972
962
950
935
916
898
886
888
897
906
913
918
921
923
925
927
929
928
930
934
939
949
951
950
945
941
943
941
938
935
930
931
936
936
935
936
935
937
938
941
938
939
937
939
940
943
941
942
941
945
944
945
944
941
940
945
944
945
946
942
944
945
945
946
945
949
949
952
954
956
955
956
955
956
961
962
964
962
962
964
968
970
970
970
970
972
974
976
974
974
973
975
979
978
981
979
980
983
984
987
986
984
980
982
985
984
984
983
982
982
983
985
983
978
976
979
977
976
973
974
970
971
972
971
971
967
968
968
972
973
971
970
970
969
969
969
967
965
962
965
966
965
967
968
965
965
967
965
964
964
962
963
965
965
965
964
961
963
966
965
966
964
963
962
965
967
966
966
961
963
963
963
963
965
964
967
968
967
965
960
957
961
961
961
959
960
959
962
964
963
961
958
955
957
959
960
960
956
955
955
959
957
955
954
952
956
957
958
957
955
950
953
956
957
954
953
954
954
956
956
955
955
954
956
959
960
960
959
955
958
957
958
957
953
950
955
954
957
954
954
949
953
952
954
955
956
957
958
962
961
961
959
958
960
960
958
959
957
960
960
960
963
960
959
956
958
960
961
960
958
959
961
963
962
963
963
964
967
967
967
969
968
968
972
979
987
995
1011
1055
1131
1183
1165
1103
1058
1045
1049
1054
1055
1054
1049
1048
1050
1050
1050
1045
1041
1039
1041
1042
1036
1032
1027
1017
1014
1009
998
985
973
961
948
935
918
909
904
908
913
921
926
925
923
922
922
929
938
946
952
959
961
963
962
958
956
953
958
960
956
956
955
956
959
961
967
964
964
964
964
966
965
964
965
961
963
965
967
965
965
967
968
969
970
969
969
968
970
973
976
977
978
979
980
981
981
980
982
980
986
990
988
991
993
998
998
1001
1000
999
999
1001
1004
1009
1011
1011
1013
1016
1019
1023
1023
1023
1020
1020
1021
1024
1025
1023
1024
1023
1025
1026
1024
1023
1022
1018
1018
1019
1019
1018
1015
1011
1009
1009
1007
1007
1005
1002
1004
1005
1003
1002
1001
995
995
997
996
994
992
991
992
992
995
992
991
991
988
990
989
989
988
987
989
990
990
989
987
987
987
988
990
987
988
986
987
990
989
990
988
989
989
990
989
985
987
982
983
985
985
982
982
980
981
981
982
979
978
978
979
981
982
980
978
978
977
977
979
977
976
975
974
974
978
976
977
973
974
975
976
976
974
975
974
977
976
975
973
972
975
976
977
973
972
972
971
973
973
971
972
970
972
971
972
972
971
970
970
972
973
972
970
969
967
969
972
971
969
967
969
971
971
971
970
967
969
971
971
972
971
969
969
972
972
972
971
969
968
974
975
976
973
972
974
975
981
983
986
991
1005
1035
1103
1180
1197
1144
1081
1053
1053
1057
1059
1056
1057
1060
1063
1064
1059
1056
1055
1053
1052
1051
1047
1039
1034
1025
1017
1006
994
978
972
965
950
931
916
909
912
918
927
929
930
930
931
936
937
943
947
951
960
967
969
965
960
954
955
957
953
951
952
949
952
957
958
957
955
954
956
957
956
957
953
951
953
955
954
953
953
950
953
952
955
955
953
952
952
957
959
956
957
955
958
959
961
961
963
962
965
966
969
970
971
972
974
977
979
982
983
981
985
989
990
990
991
991
997
1000
1001
1002
1001
999
1002
1004
1006
1005
1004
1002
1003
1002
1000
1000
1000
1000
999
999
998
994
993
991
991
990
989
988
986
982
984
983
983
984
979
977
977
978
978
979
978
974
975
978
976
977
975
975
975
979
975
976
976
973
972
977
975
974
975
972
972
975
973
972
972
971
972
972
972
973
971
968
970
972
971
971
969
968
968
969
969
968
967
966
966
968
968
968
964
962
965
965
966
965
963
961
962
967
966
964
963
960
962
965
964
963
961
959
960
959
962
961
955
960
960
962
962
961
960
960
960
964
961
962
961
960
958
964
963
962
961
958
961
962
961
959
958
959
963
962
961
959
960
956
959
961
963
961
961
959
961
966
963
963
961
960
963
965
966
965
964
962
965
968
970
968
971
972
977
985
998
1025
1087
1163
1193
1152
1085
1046
1044
1049
1053
1053
1053
1053
1052
1050
1051
1050
1048
1048
1047
1043
1040
1032
1023
1013
1000
985
975
965
951
933
914
904
907
916
923
925
928
929
932
931
934
932
936
940
948
957
958
955
951
949
951
951
949
950
950
954
960
963
966
965
963
962
964
968
971
970
973
970
970
973
971
969
969
966
968
971
970
967
962
957
960
961
960
958
956
958
956
957
959
957
957
957
957
961
962
962
961
961
965
969
970
969
969
970
973
974
978
979
977
981
984
986
987
986
986
987
987
990
991
992
988
989
990
994
992
992
990
989
992
992
992
988
985
983
984
985
981
980
977
975
977
978
978
973
973
971
974
977
974
972
969
967
968
972
969
969
967
969
968
970
969
967
965
965
966
967
969
966
964
966
967
968
969
967
964
963
964
966
963
963
960
961
963
964
964
963
961
961
963
964
963
963
961
959
962
962
961
958
959
960
960
961
961
960
959
957
958
957
959
958
957
956
961
962
960
960
958
957
957
959
958
956
955
955
954
958
959
959
956
958
960
958
957
958
957
957
959
959
959
955
953
955
959
961
960
960
956
957
958
958
957
959
956
956
960
961
962
960
960
958
961
962
962
964
961
958
963
964
965
966
967
966
966
971
970
965
963
963
967
971
972
975
978
984
995
1012
1045
1113
1175
1175
1125
1075
1053
1050
1052
1053
1051
1051
1055
1052
1051
1044
1044
1044
1042
1040
1035
1031
1028
1024
1012
995
981
969
959
940
921
908
903
908
916
925
929
929
925
926
929
935
941
946
954
961
963
961
961
958
959
961
960
963
964
969
969
970
974
976
977
978
979
977
980
983
983
984
985
984
986
988
988
984
983
982
983
987
991
996
999
999
1003
1003
1002
998
1000
1001
1007
1011
1010
1013
1009
1006
1008
1014
1018
1016
1013
1011
1015
1015
1013
1012
1012
1014
1015
1015
1014
1012
1011
1012
1016
1018
1013
1011
1010
1012
1015
1018
1018
1011
1006
1006
1011
1014
1017
1017
1013
1009
1006
1005
1005
1003
1005
1004
1005
1008
1004
1003
1002
998
998
998
997
996
994
993
994
996
992
990
990
989
995
997
998
993
990
988
990
991
993
992
990
988
988
987
988
985
985
986
987
989
990
989
986
985
987
989
990
988
987
986
984
988
989
985
984
983
984
987
987
985
983
984
984
987
987
984
984
984
984
985
985
983
980
978
983
984
983
982
981
980
980
982
983
981
980
977
983
982
978
977
975
975
981
981
981
980
980
975
978
979
979
978
976
979
978
980
981
980
978
979
977
979
979
979
978
977
978
979
978
979
977
976
978
981
980
979
979
979
980
981
980
982
980
980
982
983
982
980
978
978
978
983
983
980
980
979
982
984
983
984
985
986
991
994
1002
1015
1041
1101
1180
1204
1155
1095
1061
1061
1065
1069
1068
1066
1064
1064
1065
1066
1064
1057
1054
1051
1053
1050
1045
1038
1029
1019
1009
997
985
971
958
940
925
911
903
902
906
911
918
924
924
925
924
927
931
936
942
951
955
961
967
962
964
963
960
959
962
963
965
964
965
966
968
971
973
972
969
969
972
977
975
976
975
973
975
978
976
979
977
976
979
980
980
979
978
975
976
979
982
980
981
981
983
984
982
987
985
983
986
991
992
990
991
992
994
997
998
997
999
999
1003
1004
1007
1005
1007
1008
1007
1011
1011
1012
1010
1009
1011
1012
1015
1011
1013
1012
1019
1021
1022
1021
1018
1016
1018
1022
1022
1019
1019
1018
1019
1019
1017
1014
1010
1008
1009
1009
1006
1002
1001
997
998
996
995
987
987
984
988
988
987
986
982
982
983
983
982
980
978
976
977
980
980
979
975
977
977
978
977
976
974
976
978
978
976
976
973
970
973
974
975
973
971
970
971
974
973
972
970
968
969
971
971
969
968
966
967
969
968
968
966
963
963
968
965
967
964
962
966
965
964
961
961
960
961
962
962
961
959
961
961
960
962
961
958
956
960
961
962
959
957
956
958
960
960
958
959
955
957
957
960
960
958
956
959
959
959
958
957
956
957
957
960
958
957
957
958
961
959
958
956
957
960
960
959
960
959
957
959
960
959
960
957
959
959
963
964
964
963
958
962
964
963
964
962
963
964
968
967
966
964
965
971
974
980
986
996
1016
1058
1128
1176
1155
1102
1064
1053
1052
1053
1052
1047
1047
1049
1050
1050
1050
1046
1042
1043
1043
1045
1041
1036
1032
1029
1025
1016
1007
997
986
976
968
956
942
925
914
912
914
921
925
927
928
929
932
933
930
931
933
938
947
952
954
955
951
952
954
953
950
949
950
950
953
956
956
956
955
960
961
958
960
960
960
960
963
963
963
961
961
964
966
966
967
964
965
967
967
969
968
966
968
969
971
973
971
970
967
972
976
974
974
973
975
979
982
981
981
981
978
983
989
988
990
989
990
993
995
997
994
995
995
997
1000
999
998
999
998
1000
1000
1003
1001
998
1002
1002
1002
1003
1001
998
999
1001
999
998
997
995
993
994
993
991
989
984
987
989
987
986
984
983
982
980
981
979
978
977
978
979
980
981
979
975
974
976
977
976
975
973
974
977
978
977
976
975
973
975
978
975
974
973
968
974
975
974
973
970
970
974
975
976
973
974
971
975
978
977
978
975
977
978
980
979
980
977
978
978
978
979
977
975
973
976
974
973
971
968
964
967
965
964
962
961
957
962
965
963
963
959
958
958
961
960
962
957
958
959
959
959
957
954
954
956
958
958
958
956
955
956
960
961
958
955
955
957
960
960
958
957
957
960
961
961
961
955
957
960
962
962
961
959
959
962
963
964
962
960
959
962
965
962
959
957
961
963
964
963
963
962
961
963
964
965
963
962
962
966
969
970
971
974
984
998
1028
1089
1168
1200
1156
1094
1060
1050
1052
1049
1049
1051
1052
1052
1051
1049
1048
1048
1045
1042
1041
1041
1044
1046
1047
1043
1040
1032
1024
1015
1005
993
984
970
954
938
934
933
937
944
949
952
952
950
946
943
941
944
946
946
949
949
950
953
956
958
959
955
957
956
955
953
954
956
959
962
961
962
962
959
961
965
968
971
968
967
966
973
973
975
972
972
974
975
977
977
975
976
975
978
980
980
980
979
979
982
984
986
986
985
986
988
988
991
992
990
995
997
999
999
1002
1002
1005
1008
1009
1012
1011
1010
1008
1010
1010
1012
1012
1013
1010
1006
1008
1005
1001
1005
1002
1009
1009
1009
1007
1005
1001
1000
999
997
999
997
995
994
997
998
996
994
991
992
990
990
989
988
987
986
988
987
986
986
985
988
989
987
988
988
988
988
987
985
983
985
985
987
993
990
989
985
986
989
992
989
989
988
984
986
987
988
987
984
983
987
990
987
988
985
984
985
984
985
985
984
983
984
985
982
981
978
981
985
985
985
982
980
981
981
984
984
982
981
979
981
983
981
979
980
978
978
978
977
975
975
976
978
982
981
978
973
975
977
979
981
981
982
982
984
985
984
985
983
987
988
989
989
985
980
981
981
983
982
985
986
987
990
991
988
986
980
979
982
981
980
976
973
972
975
977
976
978
979
979
982
984
983
982
982
982
984
978
979
980
980
985
988
988
987
984
984
989
995
1003
1008
1020
1046
1111
1177
1197
1157
1100
1067
1059
1065
1069
1072
1075
1076
1079
1086
1092
1097
1096
1097
1095
1096
1103
1107
1111
1109
1104
1104
1105
1103
1095
1081
1068
1060
1051
1037
1016
993
977
974
976
977
976
974
969
969
967
962
957
952
950
953
956
956
956
956
953
955
959
963
962
959
961
961
964
960
957
959
962
967
973
971
971
972
972
974
976
976
975
975
975
978
979
980
977
977
977
976
979
980
978
977
978
979
983
983
981
982
983
986
987
988
987
988
986
992
991
992
992
991
992
997
1001
1001
1000
999
1004
1006
1007
1006
1007
1008
1008
1011
1015
1012
1014
1014
1014
1016
1017
1018
1015
1015
1013
1016
1019
1018
1010
1014
1010
1010
1011
1009
1007
1002
1002
1003
1006
1001
1001
997
995
998
997
999
997
991
992
993
994
991
991
989
988
991
993
989
988
987
986
987
990
988
987
985
982
984
985
985
984
983
984
985
988
988
985
981
983
983
986
986
984
982
980
982
986
987
984
982
980
980
983
982
980
979
978
979
981
980
981
975
975
979
979
977
979
978
977
977
979
978
977
974
972
974
979
976
975
971
974
972
974
974
972
968
969
974
976
976
974
972
971
973
974
971
972
969
969
971
974
972
971
970
969
970
973
970
971
968
969
970
971
970
969
966
967
969
972
969
970
967
967
969
970
970
968
967
965
966
967
969
968
968
969
968
970
966
967
965
963
965
967
968
968
965
968
970
975
975
974
972
974
978
979
977
976
974
972
975
979
984
985
994
1011
1058
1130
1175
1143
1083
1043
1038
1045
1051
1048
1047
1047
1049
1054
1058
1056
1055
1050
1053
1055
1059
1058
1053
1049
1046
1042
1038
1029
1017
1007
996
982
962
946
933
935
941
947
947
948
943
936
941
940
937
934
936
940
946
954
952
950
944
939
941
941
942
941
942
941
945
948
948
949
948
948
953
952
952
953
953
954
955
957
959
957
959
956
959
962
963
964
961
959
965
966
966
965
961
965
969
969
969
968
968
971
971
972
975
975
976
976
980
982
983
986
984
984
986
986
987
987
987
986
990
992
991
990
987
989
990
988
989
987
987
985
986
988
985
980
981
979
980
980
979
975
976
973
973
975
972
971
968
966
969
970
968
967
963
965
965
967
966
963
962
960
960
963
963
961
961
961
961
964
963
961
961
960
963
962
965
963
962
962
963
966
964
964
965
962
964
968
965
965
963
962
965
967
966
964
959
960
962
963
961
962
959
959
962
964
962
961
957
957
960
961
961
960
959
955
957
958
958
958
955
953
955
957
956
954
951
953
954
953
954
954
951
952
955
954
954
952
949
948
953
955
952
952
951
949
953
953
955
952
951
951
952
954
952
952
949
947
949
951
950
948
948
949
951
954
951
952
950
949
951
952
953
949
949
949
953
954
953
951
950
951
952
955
955
954
952
951
953
957
958
958
960
965
974
986
1010
1070
1145
1164
1118
1060
1029
1029
1032
1032
1031
1033
1034
1038
1039
1040
1037
1037
1035
1035
1035
1034
1029
1023
1012
1000
986
969
957
946
929
909
897
893
905
915
923
930
931
933
932
936
936
941
942
947
953
956
949
943
941
939
938
940
935
936
935
935
936
940
936
938
934
935
941
943
941
941
940
939
943
943
942
944
943
943
946
946
945
945
945
944
948
952
951
951
953
953
954
957
958
960
959
958
962
965
966
967
965
966
966
971
971
974
971
972
972
975
973
974
975
973
975
975
976
977
975
974
975
980
975
975
974
974
973
976
975
974
971
968
969
970
968
965
964
962
961
961
960
959
958
958
959
960
960
958
958
958
957
959
957
955
955
957
959
962
960
958
961
959
959
962
960
960
958
959
958
957
958
956
957
956
956
958
955
955
953
951
952
955
954
954
952
955
954
954
950
952
951
950
952
953
953
950
951
948
951
949
948
947
947
946
949
952
949
949
947
947
948
947
948
947
946
944
946
947
944
944
944
943
946
946
947
944
943
942
944
945
944
944
945
944
946
947
942
943
942
943
945
947
946
946
945
944
945
946
946
946
947
946
950
949
947
950
947
946
949
950
950
946
943
943
949
951
949
947
948
945
949
953
955
953
952
953
956
961
967
974
986
1010
1071
1156
1191
1150
1078
1036
1034
1042
1041
1040
1034
1032
1038
1039
1039
1034
1029
1026
1030
1029
1021
1016
1008
999
991
979
966
951
936
919
901
891
893
895
903
908
915
918
915
919
921
925
935
940
949
950
954
955
956
956
953
952
951
946
944
946
951
952
952
951
954
953
954
951
952
950
951
955
956
954
952
951
948
952
954
952
952
950
952
957
959
955
953
955
957
959
959
957
954
955
955
959
962
965
964
968
971
975
978
979
981
982
982
985
985
986
986
988
992
995
998
998
996
996
999
1004
1004
1003
999
998
1001
1005
1004
1003
1000
997
997
999
997
996
995
994
994
996
994
991
984
986
984
988
985
983
981
977
980
980
976
974
976
974
976
978
978
975
973
972
977
978
975
973
970
973
973
975
974
970
970
970
974
973
975
970
970
968
970
974
973
970
967
966
966
969
971
969
970
971
969
971
970
966
964
963
968
970
969
967
964
966
966
965
967
963
963
964
967
968
966
960
958
961
964
965
963
959
959
959
961
961
963
959
958
955
958
961
963
959
958
959
960
961
960
958
956
957
959
960
961
956
954
954
957
959
959
957
955
955
957
959
959
956
956
954
954
958
957
957
953
955
958
960
958
957
957
954
958
960
961
958
957
957
961
959
959
958
957
956
959
959
958
958
957
957
957
963
964
961
965
973
987
1009
1058
1137
1187
1152
1082
1038
1031
1038
1042
1043
1043
1047
1046
1044
1043
1036
1037
1036
1033
1029
1021
1015
1007
1001
987
974
962
950
941
927
908
891
887
892
903
911
913
911
910
912
915
921
926
930
936
945
950
953
951
946
942
943
942
943
940
943
943
945
946
950
950
949
950
954
958
960
960
958
957
958
961
962
963
963
960
961
963
963
961
960
958
959
959
960
962
959
953
952
951
950
948
951
949
950
952
953
956
954
953
954
953
956
957
958
958
959
959
962
964
964
965
967
969
973
974
972
973
972
977
977
981
980
977
978
980
981
980
979
975
974
977
976
977
973
969
968
973
969
971
969
965
966
967
967
965
966
962
960
964
963
963
962
959
957
959
961
959
955
954
957
957
957
957
956
955
955
957
959
957
954
952
954
954
955
956
954
953
953
953
955
953
953
950
950
953
954
954
952
950
950
951
951
953
952
949
947
949
953
949
950
949
948
951
953
948
948
945
947
947
948
947
945
944
943
946
946
947
943
940
943
944
946
944
943
943
941
943
946
944
940
940
941
943
943
943
942
940
939
942
944
944
944
941
942
944
945
943
941
941
941
944
943
943
942
942
943
943
945
944
942
940
941
941
943
943
944
941
944
943
945
945
943
943
942
944
945
942
941
944
943
947
945
946
943
942
944
946
948
947
948
946
948
953
958
960
967
978
1010
1076
1148
1164
1110
1047
1020
1023
1030
1032
1029
1025
1026
1030
1033
1032
1027
1023
1024
1026
1026
1024
1017
1010
1006
997
991
978
966
951
940
930
916
899
887
884
892
904
910
916
916
915
914
918
919
922
922
925
933
941
947
947
939
936
936
938
939
936
938
937
940
943
944
947
947
947
949
949
952
952
952
949
949
952
955
953
953
952
952
955
956
956
955
955
955
954
955
956
957
954
955
958
961
959
959
957
960
962
963
962
965
962
965
967
971
971
970
965
967
971
974
972
975
975
974
977
980
982
982
983
986
989
990
991
991
988
989
994
998
999
995
989
993
993
992
993
992
989
990
990
989
987
984
980
979
977
977
974
971
970
968
969
969
968
965
962
960
963
960
962
958
956
956
954
954
955
954
953
953
954
955
954
956
954
955
955
957
958
955
953
955
956
957
953
952
949
948
951
951
954
953
952
954
955
957
956
954
951
954
955
955
954
952
949
947
950
950
948
945
945
946
947
948
948
947
944
944
945
946
946
945
942
944
946
948
948
946
942
942
944
946
946
944
942
940
943
942
943
940
940
939
937
939
940
945
941
941
945
945
948
945
945
946
946
948
948
946
940
945
944
945
945
943
942
945
946
949
949
947
946
945
949
947
949
947
943
944
947
945
944
942
939
945
948
949
950
946
945
946
947
952
951
950
949
950
952
952
951
950
950
950
952
952
955
953
956
959
965
976
989
1028
1100
1164
1158
1103
1050
1030
1025
1028
1029
1032
1035
1034
1035
1040
1041
1040
1036
1031
1027
1029
1027
1028
1020
1008
1001
987
974
966
955
942
924
906
893
887
889
898
906
907
910
911
911
910
911
916
925
930
934
938
942
947
946
948
947
943
941
941
941
944
944
946
948
951
951
953
953
954
954
956
959
962
963
963
961
962
963
964
962
960
959
960
962
966
969
970
969
969
973
977
972
971
972
970
970
972
969
970
970
974
981
984
984
983
983
980
984
987
987
986
986
988
992
995
996
995
996
996
999
1003
999
1000
997
1001
1000
1006
1006
1007
1005
1006
1010
1013
1012
1010
1006
1004
1002
1003
1001
999
994
992
993
995
994
992
987
985
985
982
978
972
969
968
973
975
974
975
971
971
970
972
973
973
971
971
969
968
967
966
966
967
962
963
965
967
970
971
973
971
969
965
965
964
969
973
972
971
966
966
966
967
968
968
966
964
965
963
962
960
958
960
961
965
963
962
961
959
962
963
963
963
962
961
963
965
963
960
957
957
957
957
957
960
959
961
963
962
961
961
963
965
963
964
960
958
955
956
958
962
959
956
955
956
956
958
957
958
957
956
959
958
961
960
958
958
961
960
962
960
960
960
961
962
962
961
957
957
958
960
960
961
959
960
962
963
962
961
960
961
961
964
962
962
957
959
962
963
965
961
959
960
960
959
962
961
961
960
965
968
971
971
970
979
988
1004
1050
1122
1166
1145
1087
1049
1041
1043
1046
1044
1047
1049
1047
1047
1044
1039
1038
1036
1033
1029
1028
1022
1016
1009
997
985
974
959
949
942
925
910
894
881
876
882
888
892
895
900
901
904
906
907
909
917
924
932
940
944
942
943
945
946
946
944
941
941
946
949
951
951
952
951
954
955
956
953
952
953
955
957
956
954
953
953
955
958
957
955
954
957
956
958
959
956
955
957
958
959
960
960
958
960
962
964
965
966
965
968
967
972
971
972
973
972
975
977
979
976
977
979
984
987
985
987
988
989
992
993
993
993
991
991
992
996
996
996
994
995
997
999
1001
998
993
993
991
989
991
988
983
983
983
982
979
976
973
970
972
969
967
963
963
962
964
962
960
961
958
959
960
958
958
958
955
958
957
961
958
956
953
954
958
956
957
956
954
954
956
957
956
956
953
953
954
956
955
954
953
954
952
953
953
949
947
949
948
949
952
948
947
946
946
949
947
945
945
946
945
946
947
943
943
943
945
943
944
944
940
941
941
943
944
941
939
941
942
942
941
943
941
942
944
943
942
941
940
940
944
942
942
938
937
937
941
944
943
940
940
940
940
942
944
942
941
943
943
944
946
943
939
944
946
947
946
944
943
942
944
946
946
944
943
944
944
949
947
948
946
946
947
949
946
947
947
949
948
949
950
950
948
952
955
958
961
963
973
995
1045
1117
1150
1119
1061
1030
1027
1031
1034
1033
1029
1034
1036
1037
1038
1036
1033
1030
1032
1033
1033
1031
1023
1023
1018
1011
1003
990
977
965
957
947
933
915
902
895
899
909
916
919
919
920
922
920
920
919
920
924
930
936
943
942
938
935
936
938
936
931
930
931
936
939
940
941
939
940
944
945
945
945
943
945
946
947
947
945
944
946
947
950
949
949
946
947
948
950
951
949
947
951
952
951
954
952
949
953
957
957
957
957
955
958
957
958
959
958
959
961
966
967
968
970
970
972
975
976
977
976
977
977
976
980
983
981
978
980
983
983
984
983
982
983
982
982
984
982
981
980
981
980
981
976
974
976
974
975
974
972
969
970
971
970
969
969
965
963
965
965
965
962
959
962
964
964
962
958
958
961
961
963
963
959
957
957
958
961
960
958
957
956
960
958
959
956
955
959
959
959
960
954
952
954
955
956
955
952
950
954
956
959
958
959
955
959
959
960
958
958
956
958
960
962
960
957
954
954
955
958
956
954
951
951
954
951
948
946
941
942
944
947
945
944
941
941
940
943
942
943
939
940
939
943
940
939
936
937
939
940
940
939
935
935
936
938
940
938
935
937
937
937
936
937
933
934
935
937
939
935
933
935
938
939
938
939
937
939
940
938
939
939
937
937
940
942
943
943
939
942
943
945
943
939
938
940
945
946
946
948
948
955
965
980
1021
1090
1137
1116
1059
1023
1014
1018
1021
1020
1024
1025
1024
1024
1026
1025
1023
1020
1019
1020
1021
1022
1022
1021
1012
1006
996
983
974
966
955
938
919
905
904
910
920
926
924
924
919
918
918
914
913
921
926
927
929
929
927
927
927
930
929
924
921
921
926
928
932
932
930
933
935
936
937
935
932
934
936
937
938
933
935
937
940
941
940
938
939
939
945
946
946
944
941
945
948
951
951
951
949
951
955
952
954
955
953
955
957
959
959
959
962
965
970
972
972
971
972
971
975
977
975
975
972
971
973
973
974
971
970
973
973
971
971
966
962
965
969
967
967
963
959
961
961
962
961
960
957
958
959
958
956
954
955
953
955
955
955
953
950
953
956
957
956
953
951
949
953
956
955
954
953
953
953
952
955
955
953
955
957
956
956
953
952
954
956
956
957
954
952
953
952
956
954
954
951
951
953
952
953
952
952
951
951
953
954
953
951
952
950
954
949
946
942
943
945
947
948
950
949
949
948
950
949
950
948
947
949
951
947
945
943
941
942
942
944
942
944
947
948
949
944
941
942
948
952
956
958
956
957
955
957
956
953
951
948
952
957
960
958
953
947
945
947
946
945
938
935
937
944
948
949
949
947
948
949
949
948
946
941
942
944
947
945
945
945
946
948
949
956
959
964
975
1004
1076
1141
1140
1080
1033
1021
1029
1036
1037
1039
1046
1051
1054
1058
1058
1058
1058
1062
1068
1074
1074
1074
1072
1073
1073
1065
1053
1037
1028
1021
1008
986
966
947
946
951
955
954
950
941
939
932
928
919
916
917
918
923
922
919
918
921
924
924
926
922
922
919
922
925
930
932
928
928
929
934
936
937
934
935
936
938
940
940
939
936
936
936
939
941
938
935
937
937
940
941
939
936
938
941
943
942
943
942
945
948
950
950
950
950
951
956
958
959
958
958
962
966
968
967
967
965
968
970
973
971
970
967
970
972
973
971
968
966
966
967
966
965
962
962
961
959
961
958
957
955
955
956
956
955
952
950
951
951
951
950
949
946
948
950
948
949
947
943
946
945
950
949
946
945
944
947
946
948
945
944
944
946
947
947
946
943
943
945
949
948
945
943
944
947
948
945
943
943
942
944
945
944
943
939
941
944
944
943
940
941
939
941
941
941
938
939
937
940
940
938
936
935
935
936
939
937
935
933
934
936
936
937
934
929
933
936
938
936
933
931
931
932
935
932
929
929
930
933
932
932
933
927
931
933
934
933
929
927
930
931
932
932
929
928
930
930
932
932
931
929
931
930
933
933
931
930
933
933
935
934
934
930
932
935
936
934
934
934
932
937
936
940
941
945
952
969
1013
1088
1146
1137
1079
1030
1017
1022
1028
1027
1028
1028
1030
1031
1029
1026
1024
1024
1024
1024
1022
1014
1005
997
988
979
969
957
950
941
925
911
898
895
902
911
921
931
932
932
932
930
927
923
923
924
930
937
937
935
930
923
923
924
922
922
919
916
921
923
922
924
920
920
923
926
927
925
925
924
926
930
930
927
926
927
930
932
933
932
933
933
934
935
936
934
935
935
937
939
939
939
940
941
942
945
947
944
942
945
949
951
954
953
953
953
955
960
960
960
960
958
965
965
964
965
965
962
966
969
969
968
969
965
968
970
969
968
966
965
966
967
967
966
962
961
963
963
961
961
959
956
957
958
958
957
952
953
953
954
955
953
952
950
952
954
954
953
951
950
952
953
953
952
953
950
953
956
954
955
955
951
953
953
955
953
952
952
955
954
959
954
952
954
953
955
957
955
953
952
953
953
956
953
951
948
949
951
953
953
952
949
950
950
951
953
948
948
949
951
948
950
948
944
944
949
949
946
945
945
945
946
947
945
944
943
945
947
944
947
945
942
944
946
945
945
944
941
943
944
945
946
943
941
943
944
944
945
943
943
943
942
942
945
942
942
943
944
945
945
943
939
941
943
945
944
942
940
942
944
946
944
943
942
944
946
945
945
943
942
946
946
945
945
945
945
947
950
951
951
950
952
960
969
980
1002
1056
1127
1158
1123
1064
1030
1024
1027
1029
1032
1030
1028
1028
1029
1030
1027
1027
1020
1021
1020
1019
1018
1013
1008
998
986
975
964
955
943
928
913
901
904
910
918
922
925
929
931
930
928
931
928
934
941
949
949
947
941
940
939
941
938
936
934
934
936
938
937
938
936
934
938
938
935
936
934
936
940
941
939
937
938
936
938
940
937
936
933
938
941
942
942
943
941
943
946
950
948
949
945
945
951
952
953
951
950
953
958
961
958
959
958
962
965
966
967
967
968
969
970
972
973
972
973
974
980
980
982
980
980
982
984
987
987
985
985
988
987
985
986
981
979
977
980
979
978
975
974
976
977
976
975
972
972
971
974
974
973
972
970
970
972
971
968
963
962
962
962
965
961
961
959
963
964
967
963
963
962
963
965
967
964
962
961
962
963
962
962
957
955
957
960
961
962
962
958
959
960
959
960
955
955
957
961
963
962
963
962
961
962
960
958
956
954
953
958
958
957
956
954
955
955
956
955
952
952
953
954
955
955
956
953
954
955
954
954
951
948
949
952
950
950
949
950
948
951
952
951
948
946
950
954
954
954
953
951
951
954
955
952
951
950
951
951
952
952
952
949
953
955
955
954
951
951
954
955
955
956
955
954
952
956
954
954
954
953
957
959
961
960
958
955
958
958
959
955
952
951
954
957
959
962
959
957
960
960
961
963
962
964
964
962
970
980
990
1012
1057
1132
1182
1164
1102
1052
1038
1044
1048
1049
1046
1046
1046
1048
1047
1041
1037
1034
1035
1038
1038
1033
1027
1019
1015
1010
999
984
973
959
951
942
931
914
901
892
892
902
907
910
912
910
909
914
915
916
921
927
939
947
956
963
960
957
958
957
958
955
953
952
954
957
960
960
959
955
960
957
959
956
955
952
954
956
955
956
955
959
962
965
962
959
954
951
951
955
955
957
956
955
954
953
954
955
953
951
951
951
954
957
956
959
961
963
963
959
959
963
967
968
970
972
972
975
978
983
986
986
983
980
982
988
995
1001
1003
1001
1004
1005
1006
1004
1004
1005
1008
1009
1008
1006
1004
1003
1006
1007
1010
1007
1002
999
1000
1000
997
996
995
994
995
996
993
994
991
989
990
989
989
986
983
983
982
983
983
981
979
978
981
981
980
979
978
977
982
981
978
975
973
975
975
976
978
976
976
975
978
978
979
975
973
975
976
978
977
973
972
971
975
977
976
974
973
971
973
974
975
972
971
971
972
973
973
969
969
969
970
973
971
968
967
966
966
968
969
965
965
966
965
968
965
965
962
962
962
965
964
965
960
959
960
962
963
961
960
959
960
962
962
960
957
956
958
960
960
960
956
954
957
957
960
959
955
954
954
956
957
957
955
951
954
956
956
954
955
952
952
956
956
957
953
952
954
952
952
954
951
948
950
953
955
953
951
950
949
953
952
950
949
948
950
953
954
954
953
952
955
958
963
968
973
989
1022
1090
1161
1176
1125
1062
1032
1032
1038
1039
1039
1037
1039
1044
1044
1045
1040
1035
1036
1034
1034
1030
1023
1014
1008
1001
987
978
965
954
944
930
911
898
890
891
901
906
911
912
912
912
914
915
919
922
924
927
936
943
946
943
942
941
943
943
942
940
939
941
943
949
948
946
944
943
946
950
952
948
946
945
946
946
945
943
938
937
939
942
941
938
935
934
936
939
936
934
933
933
932
933
934
933
931
930
933
934
934
933
932
930
934
939
939
939
938
938
942
944
949
948
946
948
952
956
959
958
958
959
962
965
966
969
969
967
973
975
976
972
974
974
976
977
978
975
975
974
976
976
975
975
973
973
973
977
972
972
970
966
967
966
964
965
962
961
964
962
962
962
959
955
959
961
960
959
956
954
955
955
956
957
957
958
957
961
960
957
956
955
956
959
959
957
955
956
953
957
957
955
953
953
955
957
957
958
954
951
954
955
955
952
952
952
953
955
953
954
950
947
952
953
953
951
950
947
949
951
950
949
947
948
949
951
951
950
947
947
947
948
951
948
947
946
948
949
947
946
946
944
946
947
948
945
944
944
945
948
948
947
945
943
944
947
946
945
945
943
945
944
944
946
942
943
945
945
946
945
944
944
946
948
945
944
943
944
946
948
947
946
946
944
947
949
949
948
949
945
949
950
950
950
948
948
950
953
956
957
959
963
973
990
1024
1092
1169
1185
1132
1066
1034
1029
1035
1038
1040
1042
1041
1039
1039
1038
1040
1037
1036
1037
1037
1034
1030
1029
1021
1012
1000
985
974
968
958
942
924
907
901
904
912
918
925
926
926
925
925
925
924
925
931
935
946
949
948
943
946
944
943
941
937
938
940
943
946
946
945
943
948
948
950
950
949
949
951
955
954
951
948
950
952
954
953
952
950
950
953
957
957
956
954
954
955
958
958
959
958
958
960
961
964
964
961
961
964
969
969
971
970
970
974
977
976
977
977
978
980
983
984
981
980
981
983
985
988
986
987
988
992
991
992
992
992
992
995
995
995
994
996
995
993
994
993
990
987
987
984
986
981
979
974
970
970
972
969
965
964
965
965
963
962
962
960
960
962
963
962
958
959
956
959
958
959
956
955
953
957
958
955
955
953
953
953
955
954
953
952
952
954
953
951
951
949
949
952
953
954
953
950
950
950
951
948
947
946
945
947
949
948
945
941
944
944
945
944
944
945
943
947
948
946
945
945
944
945
946
946
946
942
942
946
948
946
944
945
944
945
947
948
946
944
945
945
947
947
947
942
941
945
948
948
949
945
945
945
947
947
947
947
946
944
948
948
951
949
948
950
953
953
951
949
948
951
951
951
952
949
949
952
956
956
956
955
955
956
958
957
955
954
952
954
958
960
962
962
968
980
997
1030
1096
1166
1181
1137
1075
1044
1040
1040
1043
1042
1043
1041
1038
1039
1043
1044
1044
1044
1043
1043
1039
1038
1035
1032
1025
1017
1007
995
984
969
954
937
918
908
911
916
923
928
928
929
928
926
928
925
926
932
939
942
948
954
953
953
953
952
946
947
947
947
950
951
950
949
952
957
958
957
957
958
958
960
965
967
967
966
967
965
972
967
966
965
963
967
969
969
969
968
969
970
973
974
975
974
977
978
980
982
978
979
979
984
988
989
990
988
988
991
993
991
991
991
992
997
997
996
996
999
999
1001
1003
1003
1006
1006
1007
1008
1009
1007
1005
1004
1002
1005
1009
1006
1006
1001
999
1001
1003
999
996
995
995
997
999
996
993
991
989
988
989
986
984
980
981
982
982
983
981
980
981
984
986
985
982
982
983
981
984
983
980
979
979
984
984
984
981
979
977
979
979
975
977
979
980
983
985
979
979
978
976
976
973
974
973
974
975
980
980
979
974
972
973
976
982
983
983
983
982
983
984
981
981
983
984
987
988
987
982
980
979
980
980
978
977
971
969
968
969
970
972
969
968
970
971
969
970
966
966
969
970
968
968
967
965
965
968
964
964
961
963
964
968
963
965
963
962
964
966
967
965
964
963
967
969
964
965
963
962
965
967
966
966
963
965
968
968
969
966
967
965
967
968
968
965
966
966
967
970
970
972
971
972
975
980
988
995
1013
1059
1134
1186
1160
1098
1054
1046
1049
1060
1058
1059
1062
1063
1066
1068
1066
1059
1052
1048
1054
1056
1052
1049
1043
1038
1034
1026
1013
1000
989
975
955
939
928
931
935
941
943
943
942
936
932
930
929
934
938
939
938
937
939
941
942
944
941
940
939
940
937
935
934
936
940
945
944
942
942
943
946
948
947
947
946
945
945
949
949
951
946
946
949
949
948
948
945
945
948
951
950
950
948
948
950
954
955
957
956
958
957
963
963
963
964
964
968
971
973
971
971
972
976
978
980
981
981
981
984
985
988
986
987
983
987
987
989
987
987
985
987
987
985
982
981
978
979
981
980
979
977
974
974
975
974
971
970
971
969
973
972
972
968
967
968
969
968
969
966
966
968
971
969
968
964
966
968
968
969
967
966
965
970
967
968
967
966
968
968
970
968
969
968
968
968
970
968
967
968
968
967
969
969
967
966
964
967
967
967
965
963
966
965
967
965
965
963
962
963
964
964
961
960
960
961
963
961
960
959
959
962
963
962
960
957
959
960
962
961
958
957
957
958
959
962
960
957
954
958
958
957
955
951
952
953
956
955
953
952
955
960
961
963
960
958
960
962
965
965
965
964
962
964
966
965
963
961
962
961
964
963
963
957
955
957
958
959
959
956
954
956
961
960
961
959
960
962
968
975
987
1006
1061
1141
1187
1159
1092
1047
1038
1045
1053
1055
1055
1058
1062
1070
1073
1076
1077
1075
1077
1084
1094
1096
1095
1093
1094
1093
1086
1073
1062
1051
1038
1022
1003
986
979
982
985
987
986
980
969
959
951
946
944
943
941
936
935
932
933
932
933
932
932
930
929
928
926
925
929
933
936
938
938
935
937
941
942
943
942
942
942
944
948
947
946
943
943
947
949
949
949
945
945
947
950
949
948
948
948
952
951
953
955
952
952
957
960
960
959
957
963
964
968
970
970
967
969
974
977
978
977
978
980
981
984
984
983
980
982
983
984
985
981
981
982
985
982
983
979
978
977
978
979
977
977
974
972
974
976
974
972
971
970
973
973
971
968
969
968
967
970
969
969
964
965
967
967
965
964
961
964
965
966
966
964
963
964
967
970
969
966
966
967
970
970
969
968
965
967
967
972
967
966
965
966
967
970
971
971
967
966
969
969
968
965
964
965
967
966
967
965
965
963
961
965
965
962
961
959
959
962
964
962
961
962
962
965
962
964
962
960
962
964
963
963
959
961
964
965
962
962
960
958
960
960
961
960
960
960
961
962
966
961
961
960
962
963
961
959
960
960
962
965
964
964
962
961
962
963
964
961
959
957
963
963
964
962
962
963
964
965
965
964
962
963
966
970
971
969
971
975
981
993
1010
1053
1129
1187
1175
1117
1064
1046
1043
1051
1051
1052
1050
1046
1047
1047
1046
1046
1046
1044
1045
1046
1044
1043
1036
1035
1025
1016
1005
992
978
958
941
925
918
920
927
934
938
942
940
940
937
936
936
938
942
950
958
960
960
958
959
957
955
950
945
944
945
946
946
946
944
948
948
949
950
949
950
952
956
957
958
956
955
955
958
960
960
958
957
957
962
962
963
961
960
961
965
966
966
969
963
966
970
973
974
974
972
975
982
982
982
982
982
984
990
993
994
993
993
993
996
998
1002
1001
999
1003
1007
1009
1007
1006
1003
1010
1010
1013
1013
1011
1010
1012
1013
1014
1014
1008
1004
1004
1003
1008
1007
1007
1004
1005
1004
1004
1003
996
994
992
992
993
992
988
988
989
995
995
993
989
984
984
987
988
988
987
985
985
988
988
987
985
983
984
981
985
983
982
981
981
981
981
980
980
978
977
979
983
983
984
979
981
983
986
981
978
973
975
978
979
982
982
982
984
986
989
988
986
982
982
982
984
984
982
981
984
986
988
987
985
984
985
983
985
984
980
979
978
979
980
979
978
976
978
978
979
982
984
980
981
981
982
982
978
976
976
978
981
981
983
982
983
982
981
980
979
977
981
983
985
985
982
981
984
984
984
985
983
982
982
985
984
984
983
979
979
981
984
983
981
981
980
982
984
982
979
978
980
982
984
984
981
982
982
985
987
989
987
986
991
997
1005
1015
1033
1086
1167
1212
1180
1117
1078
1067
1072
1076
1078
1076
1074
1073
1073
1076
1076
1070
1064
1058
1058
1059
1056
1049
1040
1027
1015
1005
993
978
965
950
936
916
903
898
898
904
912
915
920
920
919
920
926
932
940
945
950
955
964
967
969
964
962
962
959
960
962
963
961
959
964
968
969
970
968
968
969
970
974
973
971
968
968
971
970
970
968
967
968
970
971
971
971
968
971
971
974
972
973
968
971
973
974
975
972
974
976
977
979
980
980
978
981
983
986
986
987
985
986
989
992
992
992
991
993
995
997
998
998
998
1001
1000
1006
1005
1003
1001
1001
1003
1003
1006
1002
1000
1001
1001
1002
1004
1001
1000
1000
1000
1000
997
995
994
993
992
992
992
989
987
985
984
983
983
982
978
978
979
979
978
975
973
975
973
975
974
973
970
972
971
974
973
972
967
970
971
974
973
969
970
968
970
970
969
968
966
967
965
969
968
966
964
966
965
968
968
965
964
963
964
967
964
962
959
962
964
964
964
963
961
961
961
963
962
959
955
957
957
959
958
957
956
957
957
959
961
957
955
954
955
957
952
955
953
951
954
956
955
953
951
953
953
954
955
952
952
951
953
955
954
950
950
949
952
952
951
950
947
949
950
952
950
950
948
950
950
953
952
951
948
950
951
951
950
952
949
946
951
951
952
951
948
950
952
955
952
951
951
950
952
954
953
954
952
952
954
954
954
952
952
953
956
960
961
963
965
973
980
999
1034
1097
1167
1188
1146
1082
1048
1040
1045
1046
1049
1051
1050
1049
1048
1052
1051
1050
1049
1044
1044
1043
1047
1042
1039
1030
1020
1013
1003
995
983
969
955
940
924
914
906
907
913
918
925
930
931
930
927
926
929
930
931
933
935
942
951
952
953
947
943
944
944
943
943
944
939
942
946
949
950
950
946
951
952
953
954
951
952
954
954
959
958
955
953
957
958
962
963
964
965
964
967
969
969
967
967
966
966
968
969
968
967
967
968
969
970
969
965
966
967
966
967
964
961
962
965
967
969
967
965
968
970
970
972
973
970
973
974
976
975
978
976
979
979
982
984
981
980
980
983
985
983
983
982
983
984
983
984
982
979
982
981
981
981
978
977
977
978
979
976
974
972
973
972
974
974
974
970
971
971
973
971
972
968
970
972
973
973
970
966
967
967
971
970
969
967
967
967
970
968
967
964
965
966
966
965
964
963
963
965
965
965
962
960
963
963
965
964
962
961
962
963
964
965
962
962
964
965
966
963
962
960
962
964
964
966
963
960
960
961
963
960
960
956
961
961
961
959
959
958
957
961
960
959
961
959
959
961
960
957
958
957
959
958
961
962
962
959
961
962
962
961
960
958
960
960
963
963
960
960
960
962
964
965
963
961
963
963
964
965
964
963
964
963
967
966
965
964
965
966
968
967
968
964
967
968
966
967
968
965
966
972
971
974
972
969
970
973
978
984
990
998
1016
1062
1144
1201
1185
1120
1070
1056
1059
1064
1061
1056
1059
1060
1063
1060
1061
1054
1051
1052
1054
1056
1051
1041
1038
1031
1025
1014
999
986
975
966
954
936
922
918
922
931
939
940
943
940
938
941
944
945
949
952
962
971
976
971
968
963
963
961
962
962
962
961
964
967
974
977
977
975
975
977
980
983
978
979
981
984
986
983
981
979
979
978
980
982
984
984
985
988
988
989
991
991
989
993
994
992
990
990
993
997
998
1000
1001
997
999
1004
1009
1011
1010
1009
1011
1014
1016
1015
1014
1013
1016
1018
1019
1022
1021
1021
1022
1024
1026
1025
1022
1021
1020
1019
1021
1022
1022
1021
1020
1020
1020
1017
1015
1013
1014
1019
1019
1021
1019
1014
1016
1013
1015
1015
1013
1014
1015
1013
1013
1010
1007
1005
1006
1006
1005
1004
1002
999
996
997
997
996
993
991
992
995
996
996
992
990
991
990
994
993
991
987
988
990
991
989
987
985
987
986
988
986
986
982
984
985
988
985
983
983
981
984
986
984
984
980
982
982
983
982
980
976
978
980
981
979
975
975
977
978
978
978
980
974
973
977
978
977
974
971
973
974
974
973
971
969
972
974
973
973
970
970
970
971
972
973
969
970
970
970
972
973
971
967
969
969
972
969
966
968
970
971
971
970
970
968
971
972
972
971
972
970
968
969
972
971
972
970
971
972
973
973
971
971
970
972
973
974
973
973
973
975
978
979
983
987
996
1012
1056
1131
1189
1174
1110
1062
1050
1055
1056
1055
1057
1059
1060
1062
1059
1056
1052
1052
1055
1057
1054
1050
1044
1038
1035
1023
1011
999
988
977
962
942
928
921
922
932
940
943
941
940
939
940
942
943
944
947
955
959
962
960
957
952
952
952
954
951
947
948
949
952
953
954
953
953
953
957
958
958
956
955
956
958
961
959
957
955
958
959
962
961
959
958
957
960
960
960
960
957
962
963
967
967
966
964
967
969
971
974
973
972
974
976
979
981
981
979
983
986
989
990
988
988
988
991
994
993
994
991
994
997
997
997
999
995
996
996
996
997
994
990
990
991
994
994
991
989
987
990
991
989
985
982
982
984
985
983
982
980
982
985
987
987
983
983
982
982
981
980
980
977
978
978
980
978
976
973
971
971
970
969
967
966
969
969
969
968
968
966
963
967
964
965
963
961
962
963
965
964
958
961
959
960
961
958
957
957
957
961
961
960
956
954
954
956
955
954
953
952
952
952
953
954
950
947
947
948
951
950
952
948
948
950
952
952
948
946
949
949
951
951
950
947
949
951
953
949
948
947
948
948
951
951
950
945
947
950
950
950
948
947
950
950
950
951
950
949
950
951
953
953
952
950
951
956
956
956
953
953
953
957
958
958
953
954
957
955
959
959
957
957
960
960
966
967
970
977
989
1022
1088
1156
1168
1122
1068
1043
1042
1048
1047
1043
1044
1044
1046
1046
1047
1039
1039
1038
1040
1041
1040
1037
1034
1032
1030
1022
1011
999
989
980
970
955
940
920
918
924
935
940
942
938
940
941
939
938
933
937
940
945
950
951
953
948
944
945
945
944
940
935
937
938
940
943
942
941
942
944
944
946
947
946
947
947
950
950
948
946
948
952
952
952
946
946
948
947
949
949
946
947
948
950
951
949
951
951
951
952
956
954
952
956
962
963
966
967
967
965
967
972
973
974
972
972
975
978
981
982
981
982
981
984
985
982
983
982
986
985
987
987
985
984
985
988
988
987
986
982
984
983
985
984
981
980
978
982
983
979
977
976
977
976
976
976
975
970
973
973
973
971
971
971
971
971
971
972
969
967
967
968
971
971
969
970
969
973
972
972
968
966
967
970
970
971
969
966
968
969
970
971
969
968
968
969
967
970
966
964
965
969
970
970
967
965
968
967
969
966
966
964
966
966
964
964
963
962
963
965
964
963
961
958
961
963
966
963
962
961
962
963
965
963
963
961
960
956
956
956
956
953
954
954
956
956
956
957
959
965
966
963
963
961
961
964
965
968
967
964
968
971
971
969
966
964
966
968
970
968
964
962
960
961
963
961
961
958
959
960
959
957
958
953
958
959
963
962
962
961
960
962
964
963
960
959
962
967
973
981
993
1024
1091
1154
1152
1096
1051
1035
1041
1051
1056
1060
1063
1066
1076
1081
1084
1083
1081
1080
1081
1089
1096
1101
1098
1097
1101
1102
1097
1085
1072
1061
1052
1038
1017
995
983
980
983
984
982
977
970
960
952
945
943
944
944
944
941
940
940
936
935
935
940
942
940
936
933
930
931
936
938
940
941
943
949
950
954
952
950
950
950
954
955
954
952
952
955
956
957
955
953
951
957
957
954
957
956
956
956
960
957
959
958
959
963
966
968
968
969
969
971
976
978
977
976
974
978
981
986
989
989
993
996
999
999
999
998
997
999
1002
1002
1001
1000
1000
997
1001
997
996
995
995
997
1000
999
998
995
992
991
990
991
991
988
987
987
989
988
989
986
986
986
987
989
985
983
981
981
985
986
987
984
980
981
983
984
984
980
979
982
985
985
983
981
980
981
982
983
981
981
979
981
984
985
982
981
980
981
986
985
983
981
979
981
982
984
982
980
979
980
980
981
978
979
975
979
979
980
975
976
973
975
975
976
973
973
972
972
974
973
974
971
969
970
970
971
969
966
968
969
970
970
967
966
967
969
968
969
969
963
963
963
962
965
966
964
962
964
967
967
966
965
961
964
965
966
961
964
961
962
964
964
963
963
962
961
963
964
962
960
961
961
962
964
962
961
959
959
960
961
956
957
957
958
959
961
963
964
970
981
992
1012
1057
1137
1194
1180
1120
1071
1054
1057
1057
1056
1058
1058
1058
1057
1056
1056
1056
1052
1046
1042
1041
1040
1039
1036
1027
1020
1010
1000
993
983
970
956
935
922
920
928
938
948
952
954
954
949
945
938
936
941
948
954
954
950
945
942
938
939
935
931
930
932
934
935
933
934
932
936
937
938
935
935
936
940
935
941
941
939
940
941
942
945
942
944
944
943
946
946
947
948
947
948
951
950
950
951
950
950
955
958
957
954
956
959
961
963
963
964
965
966
969
973
973
971
970
973
977
974
976
976
976
977
981
980
979
977
976
977
977
977
978
974
973
974
973
975
972
971
969
969
971
969
968
965
963
964
966
965
962
962
960
962
964
963
962
960
958
960
957
958
959
958
956
958
956
959
959
955
955
957
958
959
959
957
956
958
960
961
959
957
956
957
958
958
960
960
958
957
959
960
961
959
958
961
960
962
958
957
957
960
960
958
959
955
956
957
956
957
956
955
952
953
955
958
953
953
951
953
955
955
954
951
950
952
953
952
951
952
951
949
951
952
949
949
948
949
950
952
949
948
946
949
951
950
950
949
946
949
951
951
949
949
947
948
951
952
949
948
946
947
949
949
950
948
948
949
949
950
951
950
945
947
948
949
949
948
947
949
952
952
950
951
950
952
953
953
953
954
952
955
959
959
963
965
970
979
994
1032
1098
1170
1191
1149
1084
1046
1036
1039
1039
1041
1040
1041
1042
1041
1040
1038
1036
1033
1033
1032
1030
1027
1027
1022
1011
1002
988
977
965
955
941
924
907
896
891
894
903
911
913
924
928
929
929
929
927
932
938
941
949
954
961
961
958
953
953
950
947
948
949
950
952
950
951
953
951
949
946
946
946
946
947
948
948
944
942
944
945
946
944
945
942
942
941
942
941
942
939
938
941
941
941
939
937
937
940
943
939
942
941
939
941
942
943
942
943
947
953
954
957
958
959
962
964
966
967
968
968
972
976
978
977
979
979
982
985
986
986
987
986
991
992
993
994
989
990
993
993
993
992
993
989
988
990
991
988
988
984
985
987
985
984
979
978
978
979
978
977
974
975
975
974
975
972
969
971
974
975
971
969
969
966
966
969
971
969
967
967
968
971
969
968
966
967
965
969
970
969
967
965
965
969
969
967
966
966
967
968
967
966
964
965
966
970
970
967
967
965
967
969
968
966
964
962
964
965
964
962
960
960
961
962
963
964
963
960
960
964
962
960
959
958
958
960
960
960
958
957
959
960
960
957
957
956
959
961
961
960
958
959
958
961
960
958
959
959
957
959
961
960
960
958
961
962
961
960
959
958
957
958
959
960
960
960
961
962
963
964
961
959
960
961
962
956
956
957
960
962
962
963
962
960
962
963
964
964
962
962
962
965
966
967
964
964
968
977
985
996
1028
1090
1162
1185
1141
1084
1047
1042
1049
1051
1055
1052
1051
1050
1052
1054
1052
1048
1042
1036
1041
1043
1040
1036
1031
1026
1021
1013
1001
986
975
963
951
935
918
909
905
912
917
928
928
928
926
927
929
933
938
942
947
952
958
963
959
954
954
955
958
960
960
959
958
957
962
967
967
966
966
965
967
970
971
968
968
966
971
975
977
978
978
978
982
981
985
984
985
984
986
987
986
989
988
986
988
991
992
994
994
994
994
993
991
988
987
984
988
988
988
989
986
988
992
997
998
995
996
996
996
998
998
998
998
996
999
1004
1005
1004
1005
1005
1007
1008
1010
1011
1009
1008
1011
1012
1013
1012
1008
1008
1011
1013
1010
1010
1005
1006
1006
1007
1005
1004
1000
999
1001
1000
1000
999
995
992
994
995
995
991
992
992
991
992
993
990
989
988
989
991
990
987
985
987
989
990
990
988
987
985
988
989
986
986
985
984
983
985
985
985
981
980
984
983
985
982
979
979
980
982
981
979
976
976
979
979
979
978
978
976
978
981
979
977
975
974
976
976
976
973
970
970
970
972
974
971
971
969
969
971
970
969
966
966
968
967
970
966
964
966
966
965
966
966
963
962
963
966
966
962
961
960
962
965
964
963
961
958
962
963
963
960
961
959
960
960
961
960
958
959
958
959
959
958
956
956
957
957
956
956
953
952
953
957
956
955
954
954
956
957
955
955
954
954
955
958
956
954
954
952
957
958
960
958
958
962
968
976
987
1007
1058
1132
1179
1162
1109
1062
1043
1040
1042
1043
1045
1041
1039
1042
1044
1045
1043
1038
1032
1030
1031
1031
1031
1023
1015
1008
1002
992
981
968
955
941
930
913
903
894
895
902
909
914
919
919
916
916
919
922
925
929
931
937
946
951
952
949
946
942
945
944
942
944
939
942
944
947
948
952
947
948
951
950
952
948
951
948
951
954
953
951
951
949
950
954
954
956
956
955
957
959
959
957
958
960
961
965
963
961
963
964
968
971
973
974
976
974
978
978
977
977
978
977
980
982
985
982
981
981
982
984
983
979
979
981
982
983
985
982
982
983
984
986
986
986
983
981
983
987
985
986
982
983
982
985
982
980
978
975
977
978
977
976
972
971
972
971
972
971
968
968
968
968
964
964
962
962
962
964
960
960
960
957
959
962
960
959
958
957
959
961
963
960
959
957
959
960
957
956
954
954
955
955
956
955
954
952
951
953
952
953
950
950
952
952
951
951
949
948
949
950
952
949
946
946
946
949
949
949
948
947
948
948
947
946
945
943
945
947
944
942
943
943
945
946
945
943
942
942
944
946
943
943
942
942
943
946
944
943
942
940
940
942
944
943
940
940
943
944
944
941
940
940
942
944
946
943
942
939
942
944
944
944
942
941
944
947
947
944
943
942
943
945
946
946
942
944
944
947
948
947
944
942
948
950
947
947
947
948
953
952
954
954
956
960
969
983
1015
1086
1150
1153
1103
1049
1029
1028
1029
1029
1030
1030
1030
1031
1029
1024
1022
1020
1020
1020
1017
1009
1004
1000
991
976
961
945
934
922
905
889
883
886
898
907
915
916
914
915
917
920
922
925
930
938
948
952
949
944
942
939
938
940
940
936
939
939
942
946
948
947
943
946
944
949
948
947
944
944
944
947
945
945
945
946
949
954
954
955
953
953
956
956
954
954
953
954
954
957
958
956
954
960
964
968
967
969
969
968
974
978
980
979
978
978
979
982
984
984
983
983
983
986
986
986
984
988
989
989
990
988
987
987
990
991
990
989
988
986
989
989
985
984
982
979
981
984
982
979
974
969
970
972
970
970
968
965
966
967
965
962
963
961
964
968
968
965
963
961
965
963
964
963
963
963
965
968
965
963
962
963
964
967
966
966
964
961
959
960
953
952
951
951
953
954
953
949
948
948
949
951
949
947
947
946
948
949
948
949
947
944
945
945
948
947
947
946
944
944
943
944
945
944
945
945
946
944
943
942
941
943
942
941
941
940
944
946
947
945
943
942
943
945
946
948
948
946
946
949
949
948
946
944
945
947
945
944
942
942
944
947
945
943
942
942
945
946
947
949
948
948
949
951
948
947
947
948
950
954
955
954
952
953
954
955
955
957
957
957
960
963
968
973
979
998
1055
1131
1172
1139
1077
1042
1038
1044
1048
1048
1048
1049
1052
1053
1051
1047
1041
1038
1039
1043
1047
1047
1044
1044
1040
1033
1020
1008
1000
988
972
954
939
935
940
945
947
947
942
934
926
927
928
932
937
940
937
935
938
940
943
940
939
940
942
944
944
942
944
942
945
946
947
948
947
948
952
956
956
956
955
955
956
956
955
956
957
958
962
962
963
962
958
962
962
965
964
963
964
964
967
971
970
970
969
971
976
978
979
981
981
985
987
991
992
992
993
992
994
998
998
998
999
998
1002
1001
1003
1001
1001
1002
1005
1008
1008
1004
1005
1002
1004
1005
1006
1004
1001
1001
999
1000
997
997
996
994
993
996
995
993
992
990
992
992
989
990
986
986
985
988
989
986
986
984
986
987
988
985
983
983
985
984
985
986
982
980
983
984
984
984
983
983
983
985
984
984
981
980
981
984
983
981
979
979
980
981
982
981
978
975
975
976
975
974
972
970
971
973
972
971
971
969
971
973
973
971
970
971
972
975
977
975
975
977
976
979
977
974
971
972
973
973
974
971
967
965
966
964
965
961
959
958
960
963
962
958
958
955
958
961
960
959
957
954
958
959
958
957
954
954
955
957
958
954
954
953
954
956
956
955
954
952
953
955
956
956
953
954
955
956
957
956
955
954
957
957
959
958
957
962
962
970
976
984
1002
1053
1126
1166
1139
1082
1042
1034
1036
1046
1047
1049
1049
1052
1059
1062
1062
1061
1058
1054
1054
1057
1062
1060
1055
1053
1051
1052
1045
1035
1021
1009
1002
991
970
950
928
921
922
928
932
933
930
926
925
923
919
913
914
915
920
923
921
922
919
920
924
927
926
925
921
918
919
922
925
927
927
926
928
931
933
930
931
931
932
934
935
930
933
930
932
934
933
930
932
929
931
935
936
933
931
931
931
934
937
937
933
935
936
939
940
941
939
942
943
945
947
949
947
949
952
954
956
956
959
958
964
966
969
968
969
969
972
976
974
977
976
977
978
979
979
979
976
975
978
979
978
976
974
973
973
976
973
972
971
968
968
969
967
967
964
962
963
964
964
961
959
958
960
960
960
957
956
957
957
959
959
959
957
954
957
960
960
959
960
955
957
959
960
957
956
957
958
959
960
958
955
956
959
961
961
959
958
955
959
961
958
959
957
955
958
960
960
958
957
956
959
960
958
958
956
955
955
957
957
956
954
953
956
957
954
954
952
950
955
955
954
953
950
948
950
953
953
952
950
949
951
951
951
949
945
946
945
950
950
949
947
947
949
949
950
948
946
945
948
950
949
948
947
946
947
950
950
947
946
944
943
945
946
945
945
940
945
948
949
950
950
950
952
954
955
954
955
955
958
962
962
958
957
956
959
961
960
961
962
962
965
969
973
984
1013
1082
1148
1157
1104
1051
1032
1033
1038
1043
1041
1043
1042
1042
1048
1051
1050
1050
1050
1052
1058
1062
1060
1058
1054
1048
1043
1036
1023
1014
998
982
964
948
939
937
940
944
947
946
941
937
931
927
927
929
930
934
937
940
941
940
937
930
931
928
929
933
933
932
934
933
934
938
939
940
938
937
941
943
947
946
945
945
947
951
951
948
949
949
952
953
954
954
952
952
956
958
958
957
954
955
957
961
961
963
963
961
964
969
969
970
969
970
974
976
977
975
979
978
982
985
985
983
982
981
986
986
984
982
984
985
985
985
984
983
982
980
982
984
984
982
982
978
976
976
977
973
970
971
972
974
972
967
963
963
964
966
966
966
962
962
965
966
963
962
962
960
962
962
962
962
959
960
961
963
963
964
962
960
963
963
964
961
960
960
962
964
965
963
960
961
964
964
964
964
963
963
963
964
964
960
958
956
959
962
961
959
958
956
960
961
962
960
958
956
958
959
963
956
957
955
958
958
958
959
958
956
957
955
955
954
952
952
953
956
955
954
948
947
950
955
950
952
951
947
950
954
953
953
951
949
953
954
954
951
949
951
951
953
954
954
951
948
949
949
949
949
951
949
953
953
953
950
951
950
953
955
954
951
952
952
956
958
955
952
949
952
955
959
959
958
957
957
962
965
967
968
970
970
972
976
977
984
996
1040
1119
1180
1169
1108
1054
1040
1044
1050
1049
1045
1045
1045
1049
1052
1052
1049
1046
1047
1051
1055
1052
1043
1036
1030
1024
1017
1007
999
990
973
956
943
930
926
930
934
938
938
935
927
923
922
926
931
937
943
947
948
948
948
945
942
941
940
939
941
944
944
941
942
944
948
949
954
954
954
957
958
958
958
958
959
964
964
963
963
961
964
967
971
969
967
968
969
973
976
974
974
972
971
974
977
980
980
982
986
992
995
990
988
985
986
990
996
995
998
997
999
1002
1005
1004
1003
999
998
1002
1005
1005
1004
1005
1004
1002
1003
1001
1002
998
1000
1002
1002
998
996
995
989
991
992
989
990
987
984
984
987
982
979
978
975
979
981
983
983
982
978
978
978
975
976
975
975
979
981
980
977
979
975
978
978
980
978
978
977
979
981
978
977
972
974
976
976
977
977
977
975
976
978
976
978
977
975
978
980
979
977
974
972
974
976
974
974
972
971
975
974
972
968
969
968
970
971
970
968
968
968
968
970
968
967
967
967
968
966
967
966
965
962
967
968
965
964
963
962
962
962
963
961
961
959
962
963
959
960
959
960
962
960
960
960
961
959
961
962
959
957
954
956
957
959
957
956
954
956
956
959
956
954
956
951
954
957
957
955
953
953
955
957
953
953
953
955
956
957
956
954
954
953
954
956
957
956
955
956
958
962
960
959
959
963
969
981
995
1024
1081
1162
1207
1177
1108
1063
1049
1050
1052
1054
1051
1051
1050
1049
1053
1054
1052
1043
1036
1038
1035
1036
1033
1025
1020
1012
1005
994
982
973
963
950
934
921
904
899
900
909
919
928
931
929
927
923
921
922
921
920
924
931
937
942
934
932
928
924
925
925
922
918
916
916
921
924
923
918
919
921
924
927
928
926
926
924
928
929
929
926
926
927
929
931
932
928
927
928
931
932
932
932
928
930
933
935
933
933
934
934
936
939
938
938
937
938
940
942
942
943
943
944
948
951
951
950
950
951
955
958
958
957
956
958
960
964
961
963
963
961
963
967
965
964
962
962
963
965
963
960
959
959
958
960
958
957
953
954
953
954
954
951
949
948
947
950
949
949
946
945
945
946
946
945
943
944
945
946
946
942
941
940
942
943
940
944
944
941
943
946
944
944
942
943
945
944
947
944
942
944
945
945
944
944
943
941
943
945
944
944
942
942
943
946
942
943
941
941
942
945
943
941
937
938
941
943
942
939
939
938
939
941
940
939
938
938
937
939
937
935
934
935
937
938
939
934
934
936
938
936
935
932
931
932
934
934
933
932
931
933
933
933
933
930
930
929
930
932
932
930
928
928
930
931
931
926
928
927
930
931
930
928
927
927
930
931
931
929
928
926
929
931
931
931
929
930
931
930
931
930
930
929
931
932
933
932
933
933
935
937
936
936
936
941
947
952
966
986
1038
1115
1159
1132
1067
1023
1012
1016
1021
1024
1025
1020
1021
1021
1023
1024
1020
1014
1013
1015
1016
1014
1009
1002
993
984
974
963
948
936
921
908
896
879
869
864
867
876
884
890
892
891
891
891
891
896
901
903
909
917
926
928
928
925
922
922
925
926
926
926
924
927
929
933
932
932
930
931
933
934
930
929
926
926
925
924
926
925
922
923
924
925
924
920
919
918
919
922
921
920
917
918
919
918
920
920
917
919
921
924
923
924
921
923
926
927
929
929
929
932
934
936
939
941
940
943
946
949
950
948
947
949
953
954
956
956
954
956
958
961
962
962
961
960
961
963
963
962
958
961
963
964
964
961
960
959
957
958
957
955
952
952
953
954
952
948
947
947
948
947
946
943
942
943
943
943
942
942
942
942
946
946
946
944
940
941
943
944
944
942
942
942
943
946
946
946
944
944
945
946
945
941
937
938
941
943
945
943
941
940
941
942
943
942
940
942
944
944
947
942
942
941
944
945
940
939
938
938
939
940
937
936
935
936
939
941
939
938
935
935
935
937
937
937
934
937
936
939
937
937
936
936
937
938
939
936
933
935
937
939
939
939
937
936
937
937
939
936
935
937
938
939
938
936
931
932
932
933
933
936
934
936
938
941
941
942
938
940
943
944
943
940
937
941
942
943
942
941
940
937
939
944
944
940
941
941
940
946
947
945
948
952
961
970
985
1022
1093
1161
1166
1112
1058
1034
1031
1035
1037
1039
1040
1038
1037
1043
1042
1041
1037
1029
1024
1023
1025
1023
1021
1017
1010
1003
998
987
974
961
946
933
917
902
886
878
878
885
892
897
899
902
902
903
906
911
915
919
925
933
937
945
945
940
936
940
940
939
940
941
941
949
951
952
952
949
952
952
956
958
959
958
958
958
957
958
962
962
963
963
967
969
965
965
963
965
968
969
972
970
969
970
971
978
981
986
986
987
984
987
986
987
985
988
989
991
990
987
983
981
985
987
988
990
990
989
991
995
994
993
990
989
992
995
998
1000
999
1001
999
1000
1002
1000
995
994
992
995
992
990
987
989
993
994
991
986
987
988
993
993
991
990
987
989
988
987
986
982
979
980
979
980
983
979
976
977
979
983
984
984
978
981
981
982
982
980
981
981
982
981
979
977
974
976
977
981
979
977
976
979
979
982
979
976
973
975
979
980
978
975
974
974
974
976
973
972
971
972
975
975
973
971
969
971
974
975
974
974
971
970
970
972
972
971
968
969
970
971
969
970
966
967
968
967
968
965
965
966
966
970
968
965
966
966
968
971
970
968
964
966
965
968
970
966
966
966
966
969
968
967
962
963
965
966
965
965
964
962
963
968
967
965
962
964
965
970
967
964
962
963
966
967
968
966
963
964
967
967
967
968
968
970
975
983
985
994
1012
1067
1147
1186
1150
1085
1051
1044
1052
1054
1054
1055
1051
1053
1055
1054
1055
1050
1044
1046
1046
1047
1043
1035
1026
1018
1010
999
985
970
958
940
922
907
895
892
894
901
910
915
915
911
909
912
920
925
932
937
942
948
949
947
942
937
937
938
937
941
940
941
941
944
946
948
949
948
947
948
951
951
950
950
948
949
949
951
950
950
949
949
951
952
952
951
947
948
950
952
951
951
949
949
953
955
955
953
954
955
957
959
961
960
958
961
963
967
968
967
968
971
974
977
976
977
977
979
980
982
981
981
981
981
983
984
984
984
986
985
989
986
988
987
984
984
985
987
987
985
982
980
982
979
978
977
974
971
973
973
970
966
962
959
958
958
957
956
953
951
954
953
952
952
950
951
951
952
953
951
948
948
949
950
951
949
947
949
948
950
949
946
944
943
944
947
947
944
941
941
944
945
944
943
940
940
940
940
942
938
937
938
935
940
937
936
935
936
937
940
938
935
933
933
934
934
934
931
928
930
932
934
933
929
929
928
932
933
932
930
929
930
931
930
931
931
929
931
931
934
934
930
929
930
932
933
933
931
930
930
933
933
934
933
931
931
932
933
932
933
932
932
931
935
935
935
932
932
936
936
936
935
934
936
937
939
938
937
937
941
942
943
945
945
947
950
964
978
1015
1084
1156
1163
1106
1047
1025
1025
1029
1030
1030
1031
1033
1033
1031
1031
1030
1027
1027
1026
1028
1026
1021
1015
1006
997
981
970
957
946
931
911
893
884
889
898
906
908
910
909
906
909
910
910
911
917
924
931
933
929
926
925
923
924
924
922
917
921
923
928
929
930
926
929
933
935
934
934
930
935
936
937
935
935
935
937
938
940
941
939
937
939
941
941
941
940
938
940
942
942
943
940
941
944
948
949
951
949
947
949
954
956
956
956
953
957
961
965
966
963
962
967
968
971
968
969
970
969
973
974
976
974
972
972
973
975
973
970
971
973
974
976
975
974
970
970
972
970
970
964
963
963
964
963
965
963
961
959
960
958
958
957
956
957
959
959
960
958
958
958
960
960
957
957
953
954
954
954
956
954
954
952
956
958
956
956
955
956
956
960
958
957
955
955
957
957
956
952
949
949
953
953
955
951
948
950
949
952
952
950
948
950
953
952
954
953
953
955
958
959
957
955
952
952
957
958
958
957
955
955
956
957
952
950
944
944
943
943
941
940
941
942
944
945
944
942
939
941
944
943
940
939
937
937
940
941
940
938
935
935
938
940
940
938
937
937
939
939
939
939
939
941
942
945
943
943
941
941
944
944
944
940
939
941
939
942
944
944
946
947
950
952
950
951
950
954
957
965
973
987
1027
1100
1157
1156
1102
1049
1029
1029
1035
1040
1043
1047
1049
1052
1055
1056
1051
1045
1042
1040
1046
1049
1048
1046
1043
1043
1045
1040
1029
1012
1000
991
982
970
949
928
911
911
921
925
931
930
927
922
923
920
914
911
910
914
916
919
922
921
919
922
928
932
936
931
928
927
926
927
928
925
924
929
934
938
939
939
937
940
942
947
947
946
944
946
949
949
947
943
942
942
942
945
945
945
950
952
958
956
955
951
951
954
956
960
961
961
961
964
965
967
966
969
971
976
979
982
983
984
982
981
984
986
988
991
995
1002
1003
1001
1001
997
996
997
998
994
996
997
996
999
1001
1000
1000
999
998
995
997
996
994
991
988
987
988
987
987
986
982
980
977
979
981
980
983
982
983
984
984
981
978
977
981
982
980
976
975
978
979
979
980
978
978
975
973
976
979
977
978
981
979
981
979
980
976
977
976
975
975
975
975
977
981
980
981
978
979
980
980
985
984
982
980
978
977
976
976
976
976
977
979
977
977
974
970
972
974
975
973
974
970
973
975
975
976
971
971
971
972
973
971
969
968
967
970
971
967
966
964
966
969
969
971
967
967
966
968
971
969
966
966
969
969
970
968
967
964
967
968
970
971
967
966
969
969
968
965
962
962
963
966
964
964
961
961
962
967
968
968
969
969
970
971
969
969
970
972
974
973
975
973
970
970
971
974
978
979
980
981
988
997
1025
1086
1159
1185
1146
1087
1054
1047
1052
1051
1053
1054
1060
1057
1062
1064
1065
1065
1065
1063
1067
1068
1072
1075
1073
1070
1061
1054
1049
1041
1033
1020
1007
989
972
953
936
932
931
935
940
940
939
931
927
922
921
920
924
927
927
928
936
934
933
930
924
920
918
919
921
918
920
919
922
924
925
927
925
925
925
930
928
931
929
930
931
933
933
933
929
930
932
934
934
936
934
931
933
936
938
937
938
936
938
939
939
943
938
938
940
945
945
945
947
946
948
952
953
953
953
953
957
959
960
963
961
960
961
964
962
964
965
961
963
965
966
966
965
964
962
963
961
962
959
959
959
960
958
958
957
952
954
954
953
952
949
947
947
946
946
943
942
938
939
941
942
940
939
939
939
939
939
938
937
934
938
938
936
937
934
933
934
936
937
935
936
934
936
937
935
936
934
934
936
937
935
936
936
935
935
938
937
937
936
935
936
938
940
939
937
934
935
936
938
937
935
933
935
934
936
934
933
931
932
935
935
932
930
929
928
931
930
932
930
927
927
930
930
928
927
925
924
927
928
926
926
922
925
927
927
927
925
921
923
929
927
926
922
922
925
924
925
923
924
922
921
924
924
921
921
919
920
923
925
920
920
918
920
921
925
923
921
918
919
921
922
924
923
921
921
922
925
924
923
922
921
923
922
923
922
923
922
924
925
926
925
924
927
932
935
940
945
952
974
1025
1105
1159
1142
1079
1028
1012
1017
1020
1019
1017
1018
1019
1022
1024
1021
1017
1016
1016
1018
1016
1009
1000
995
989
977
961
946
933
922
910
899
880
871
869
876
889
896
900
901
898
899
901
901
904
904
908
917
926
927
924
920
916
911
912
910
909
907
907
910
914
914
912
911
910
909
912
913
911
910
908
908
911
909
908
908
905
908
910
908
908
905
905
906
909
908
910
910
906
908
907
910
908
908
906
911
913
913
914
913
912
917
919
922
924
920
924
929
932
934
937
934
935
937
940
945
948
949
948
951
955
955
957
958
955
960
964
966
962
960
960
959
962
962
962
957
957
961
961
961
959
957
955
955
958
956
954
951
949
950
952
952
950
948
946
944
945
944
944
943
942
941
944
945
943
941
940
940
941
944
945
946
941
940
944
941
943
940
939
941
940
943
945
944
941
941
941
938
941
944
943
943
944
944
941
940
938
940
939
939
938
937
932
935
935
935
936
938
936
937
939
939
938
936
934
934
934
936
937
933
932
934
936
935
934
932
927
932
933
935
935
931
930
931
930
931
934
933
931
932
932
933
932
930
931
931
934
933
933
931
931
930
934
935
935
933
934
935
936
935
933
934
932
932
932
934
934
933
931
933
937
940
939
939
935
936
938
938
936
938
938
939
940
943
941
940
940
942
941
944
944
943
942
941
942
944
947
948
954
965
979
1008
1069
1146
1180
1144
1084
1044
1035
1036
1039
1041
1043
1041
1042
1042
1041
1039
1039
1038
1038
1037
1036
1036
1031
1024
1016
1007
991
980
968
954
943
929
910
897
885
885
890
896
897
899
898
898
903
903
903
907
911
917
921
925
935
940
944
943
944
945
941
942
945
944
943
942
942
947
952
957
956
956
956
960
964
967
966
965
964
967
971
972
971
970
967
970
971
970
970
968
969
971
974
976
975
973
969
968
966
966
963
964
963
965
966
966
967
962
962
963
965
970
971
970
970
971
971
971
971
975
976
983
986
989
987
988
984
985
988
991
996
996
993
995
996
997
995
994
995
998
1004
1005
1007
1002
997
995
996
997
997
996
992
992
995
994
994
995
992
992
994
992
987
985
981
980
984
984
985
985
980
984
983
983
982
978
978
979
982
982
981
979
975
974
975
976
975
973
971
971
973
974
974
975
973
975
975
975
973
973
974
976
980
979
978
976
973
973
975
979
980
981
979
978
978
975
974
970
972
974
975
976
977
974
973
975
977
974
973
969
965
968
966
965
968
971
973
973
975
975
975
974
972
972
971
971
974
970
971
971
971
971
971
969
966
965
969
969
970
970
966
970
971
971
972
968
968
968
972
971
971
969
966
968
970
970
973
971
970
972
972
973
972
969
969
970
971
971
971
967
968
969
972
972
970
969
970
971
973
972
976
974
973
975
983
987
991
998
1016
1065
1140
1188
1174
1118
1073
1060
1064
1066
1064
1064
1063
1066
1067
1069
1066
1063
1058
1053
1052
1052
1048
1042
1034
1025
1017
1004
991
976
962
952
939
924
906
889
888
888
897
906
908
906
905
908
912
914
919
922
930
937
945
951
952
946
947
948
950
950
946
943
944
947
951
954
953
953
954
956
959
959
957
960
954
958
960
959
959
957
955
956
961
962
960
958
958
958
964
963
961
960
961
963
963
965
965
966
967
968
971
975
972
973
970
975
975
976
977
977
977
980
981
983
981
981
979
980
980
982
980
978
979
979
984
983
981
985
980
984
987
987
987
989
984
988
987
988
987
986
980
985
985
985
985
980
977
979
979
979
978
974
971
971
972
972
971
969
965
968
967
967
966
964
963
962
963
966
962
959
960
959
962
958
957
957
955
956
960
958
958
956
955
955
956
958
958
956
954
957
958
954
954
955
952
954
954
955
953
951
950
952
949
951
949
947
947
947
948
949
947
947
946
945
948
947
943
942
941
945
945
945
944
941
942
942
946
944
941
943
942
941
945
945
944
940
938
941
941
942
942
939
941
943
942
942
938
940
937
940
942
942
941
941
941
942
945
944
943
940
939
940
941
943
942
942
941
941
943
946
942
942
942
944
943
946
945
941
942
943
944
944
946
944
942
945
947
947
946
947
947
947
950
949
950
948
947
954
960
967
977
989
1025
1094
1160
1171
1125
1065
1036
1034
1037
1040
1037
1035
1035
1038
1041
1040
1037
1033
1029
1029
1030
1031
1026
1019
1011
1006
994
983
968
956
943
929
915
898
885
885
893
903
911
913
913
914
911
913
916
919
922
926
931
940
944
944
943
937
938
938
938
938
939
937
940
943
947
947
946
947
944
950
951
953
953
949
949
952
953
951
952
951
951
951
953
953
954
953
952
955
955
957
957
955
958
959
961
962
961
961
961
964
966
965
966
968
967
970
973
974
976
976
977
979
981
984
983
982
984
985
988
989
990
987
988
990
992
994
993
993
992
993
993
994
995
993
989
990
990
989
988
987
983
983
984
984
984
983
982
982
984
979
978
980
978
980
983
985
981
976
975
973
977
977
976
973
971
972
971
972
966
963
960
960
962
962
963
961
960
960
961
959
960
956
957
958
958
956
954
952
948
950
954
954
952
950
949
950
951
950
948
949
945
946
948
949
951
951
945
951
951
948
948
946
943
946
947
947
946
945
944
947
949
950
948
947
945
944
946
947
944
942
944
948
950
950
948
947
945
946
946
946
947
945
942
946
949
950
948
946
944
946
948
949
946
947
947
948
950
953
953
950
950
949
949
950
948
947
947
950
952
951
952
950
949
952
956
955
955
954
953
955
958
954
958
959
958
962
965
967
971
978
988
1021
1092
1175
1204
1157
1087
1051
1047
1052
1055
1054
1051
1051
1052
1054
1051
1045
1038
1041
1047
1049
1049
1042
1035
1031
1024
1012
1001
988
975
961
945
927
910
908
913
923
934
934
931
929
925
925
926
930
933
933
939
942
946
948
949
947
945
947
948
946
947
947
947
950
953
954
955
953
955
957
962
964
965
963
961
962
965
968
969
967
965
965
965
964
967
967
965
969
971
977
977
973
973
974
976
979
979
979
981
983
982
983
982
983
986
991
995
993
995
997
996
999
1006
1006
1008
1009
1008
1009
1008
1011
1010
1011
1010
1016
1020
1021
1018
1017
1013
1012
1015
1014
1010
1006
1004
1005
1007
1009
1010
1007
1003
1001
1001
999
999
1002
1000
1001
1003
1003
1001
998
996
997
999
996
995
994
996
999
1000
999
998
999
998
999
1001
1000
995
994
993
994
996
997
998
995
993
995
995
996
997
995
993
989
992
992
989
989
992
997
1000
998
994
992
992
991
994
994
990
990
986
987
989
991
991
989
989
990
988
986
982
981
980
979
987
987
987
986
984
986
989
992
988
988
988
989
994
994
996
988
989
990
992
990
991
986
985
985
989
989
984
979
974
971
971
976
976
977
974
974
977
977
975
975
974
976
978
980
981
978
980
978
978
976
976
975
974
976
976
973
973
974
974
977
976
972
970
971
974
976
982
989
991
990
988
992
999
1010
1021
1043
1104
1181
1210
1164
1100
1065
1064
1072
1079
1081
1081
1085
1090
1094
1097
1091
1089
1083
1082
1086
1086
1088
1083
1079
1072
1061
1045
1030
1013
1002
984
959
940
928
926
931
935
940
938
937
929
929
925
930
936
940
945
945
945
947
952
958
958
959
955
959
957
956
957
959
961
965
970
970
970
970
970
972
974
974
974
974
973
974
976
976
977
974
973
975
977
977
974
976
976
978
979
980
980
979
978
983
985
985
985
985
986
989
993
993
994
993
993
995
1000
1001
1002
1003
1003
1005
1006
1005
1007
1004
1007
1010
1011
1012
1009
1008
1008
1009
1010
1008
1007
1006
1003
1003
1005
1004
1000
1000
998
996
997
995
994
990
987
989
989
989
986
981
981
980
980
979
978
976
975
977
978
977
976
974
974
975
975
975
973
971
973
972
973
975
974
971
969
972
974
975
973
970
971
971
973
972
972
969
969
970
972
969
971
967
967
967
970
968
967
963
963
965
966
966
963
962
960
963
962
964
962
959
957
959
957
958
956
955
953
957
960
956
954
952
951
950
952
953
950
949
948
949
952
951
952
949
948
947
950
950
947
946
947
948
951
949
947
945
945
948
947
949
951
949
950
954
957
956
954
954
951
951
951
951
949
947
945
947
950
950
948
944
942
943
941
940
940
937
939
942
943
942
940
938
939
941
941
941
941
940
941
942
944
946
948
950
955
967
987
1028
1100
1158
1161
1108
1054
1029
1027
1029
1031
1035
1042
1044
1044
1049
1052
1058
1061
1061
1061
1064
1066
1073
1078
1077
1073
1072
1071
1069
1059
1048
1034
1025
1013
997
980
961
952
946
945
949
952
948
946
939
932
929
923
918
911
910
908
910
911
910
906
904
906
911
911
912
907
903
902
903
904
907
907
908
908
911
913
913
915
915
914
915
917
918
919
916
917
918
920
918
921
917
919
919
923
921
919
918
915
921
922
923
922
922
920
922
925
926
926
927
927
930
933
934
933
932
934
934
939
938
941
942
943
946
948
950
951
949
950
955
957
958
957
956
956
956
959
961
958
959
958
960
963
961
958
959
956
955
958
958
957
954
956
957
957
954
953
952
951
951
953
949
950
945
946
949
948
949
947
944
943
945
946
946
943
943
941
945
947
946
942
940
941
944
946
945
943
940
939
943
945
943
943
942
942
942
945
946
946
943
942
943
946
945
944
941
943
945
947
947
946
940
939
940
946
944
942
941
940
943
942
943
940
940
936
938
940
939
937
936
935
938
939
938
935
935
934
935
935
934
935
934
933
935
936
934
933
931
929
934
934
935
932
930
930
934
935
935
931
930
931
931
934
933
933
930
929
930
931
932
931
930
929
932
932
931
930
928
931
930
932
932
931
930
927
930
930
932
930
929
929
931
933
932
931
930
929
931
932
931
933
932
932
933
936
935
936
937
932
938
943
944
950
959
976
1024
1097
1153
1149
1092
1034
1018
1020
1026
1027
1024
1026
1027
1030
1032
1030
1029
1028
1028
1030
1028
1024
1018
1014
1008
1000
987
976
961
946
935
921
901
883
876
875
885
900
908
910
912
913
915
917
916
914
912
914
920
925
931
931
927
921
919
918
912
911
910
907
910
911
913
912
912
912
911
917
916
915
913
912
916
918
919
918
914
915
914
919
918
919
917
917
919
921
923
923
921
922
923
926
928
930
928
927
929
933
935
934
931
932
935
938
941
941
942
942
947
950
950
952
952
954
955
956
956
956
956
955
960
962
961
961
961
961
963
968
966
964
963
962
962
965
964
961
961
961
960
963
963
960
958
956
958
956
955
951
949
948
950
952
952
949
950
949
951
950
951
948
945
945
948
948
948
946
945
944
945
949
951
949
947
946
950
950
948
949
947
945
946
949
947
944
942
943
946
951
950
948
948
947
946
949
947
948
946
945
948
948
948
947
945
945
945
949
947
946
945
944
946
949
948
948
947
947
948
947
946
946
946
944
945
945
942
942
940
940
940
943
945
943
945
945
946
947
947
946
944
942
942
945
942
942
941
942
943
946
945
945
943
942
943
944
941
943
942
943
946
947
945
945
941
941
945
946
944
945
947
946
946
949
949
947
948
948
948
950
944
944
943
947
949
952
953
949
949
951
952
954
950
949
948
951
952
959
958
959
958
958
958
965
969
974
980
997
1043
1120
1181
1170
1114
1065
1052
1054
1056
1055
1053
1050
1052
1054
1052
1051
1048
1043
1045
1048
1046
1042
1033
1028
1020
1012
1000
984
970
953
937
922
900
888
885
894
905
916
916
913
912
909
911
920
925
930
937
949
957
960
958
955
955
955
960
961
963
964
967
970
972
972
970
974
977
979
984
982
978
974
973
970
973
976
975
975
971
968
968
971
969
969
965
961
963
966
966
967
966
969
971
970
968
969
966
966
967
969
972
974
975
974
978
980
979
979
983
989
993
998
997
996
998
999
1003
1006
1006
1002
1002
999
1000
1005
1007
1012
1014
1018
1019
1022
1020
1017
1017
1018
1021
1023
1023
1020
1019
1019
1018
1019
1015
1012
1012
1007
1011
1011
1006
1002
999
1001
1003
1007
1007
1004
1002
998
998
998
997
992
992
992
994
993
994
994
992
996
997
999
997
995
994
995
997
997
996
993
991
992
992
993
992
991
993
993
995
997
997
993
988
988
990
994
992
990
991
989
991
993
989
989
988
986
990
991
990
989
986
986
984
985
983
983
983
986
987
987
987
985
981
981
984
986
985
983
979
982
983
985
983
984
982
981
981
981
981
976
978
976
980
978
978
978
976
976
977
977
977
978
976
976
977
979
978
978
975
977
978
979
978
976
974
976
976
978
978
977
974
973
974
977
975
974
973
974
976
976
977
975
973
972
974
976
975
974
971
975
975
977
978
978
978
978
979
984
989
993
999
1016
1058
1131
1188
1184
1125
1072
1055
1060
1065
1067
1066
1067
1072
1076
1079
1077
1073
1069
1069
1068
1070
1065
1059
1054
1054
1050
1040
1025
1010
998
992
983
969
947
931
923
924
931
934
936
931
928
926
925
925
925
926
930
936
939
941
940
937
938
941
944
941
938
934
932
933
936
939
940
940
940
943
945
946
946
944
945
947
950
951
949
946
947
947
949
948
946
943
947
946
947
947
947
944
945
945
950
949
951
950
951
953
956
958
958
955
957
960
965
966
967
965
966
966
968
970
971
970
972
974
975
975
974
971
970
974
974
973
974
975
977
978
982
981
980
977
979
980
985
983
982
981
984
983
984
984
984
979
980
980
981
979
976
974
975
977
974
974
970
968
965
968
971
968
966
962
965
964
965
965
962
960
959
962
964
961
960
960
959
960
960
960
958
958
957
958
961
958
957
955
954
957
957
960
955
953
952
956
957
955
956
953
952
952
956
955
953
950
952
953
955
952
951
950
950
952
951
953
949
945
947
949
949
949
947
945
946
947
945
947
945
946
943
944
946
945
945
944
944
945
946
947
944
943
943
943
947
946
944
942
943
945
949
946
943
942
944
947
948
948
947
944
945
946
948
945
946
943
943
946
946
947
945
943
945
947
950
950
947
945
946
947
949
949
948
946
947
948
948
947
946
948
951
951
953
955
954
954
959
967
973
984
1020
1089
1149
1145
1093
1043
1025
1026
1030
1032
1032
1031
1031
1031
1033
1034
1032
1030
1028
1028
1028
1024
1023
1014
1006
996
983
971
961
949
937
916
900
891
890
895
902
909
913
917
920
919
918
914
917
921
925
930
936
941
943
944
939
938
938
933
934
935
938
937
936
939
942
947
945
947
946
944
947
948
949
949
948
948
948
950
951
950
950
949
947
951
952
951
952
949
949
949
952
953
954
952
953
952
955
958
957
955
957
959
960
963
961
961
964
967
971
971
972
970
970
974
978
979
976
976
977
978
982
982
982
982
981
987
989
988
988
986
985
988
990
990
987
985
986
987
990
988
989
986
988
988
991
991
990
985
981
980
978
979
975
973
971
972
974
971
968
964
964
965
962
961
959
957
958
959
961
959
957
955
955
956
956
957
955
951
949
953
954
951
950
946
948
948
949
952
948
945
946
947
950
947
945
945
942
945
947
948
946
944
946
948
947
947
946
944
944
946
946
943
946
940
943
944
945
944
943
939
941
942
943
943
942
941
940
942
942
945
942
940
941
944
944
943
940
938
939
938
941
941
940
936
938
941
943
941
941
943
944
945
947
946
940
941
941
944
946
947
945
944
944
945
947
944
943
944
941
942
945
944
942
939
944
949
952
954
954
949
949
949
950
948
948
949
951
953
953
955
955
954
956
962
964
971
976
982
1011
1071
1141
1168
1130
1072
1040
1035
1040
1043
1043
1039
1040
1041
1045
1045
1043
1038
1033
1029
1034
1038
1037
1033
1027
1024
1020
1009
995
977
967
958
947
930
911
899
897
904
916
922
923
921
919
920
921
922
920
920
925
930
940
945
946
944
945
944
948
948
945
944
945
950
956
958
959
957
959
959
961
963
965
959
963
963
965
963
965
963
964
968
969
971
974
970
972
974
976
977
977
977
978
980
981
981
979
977
981
983
987
984
982
982
987
992
996
997
996
992
989
991
997
1003
1003
1003
1006
1010
1014
1016
1012
1009
1011
1013
1017
1018
1015
1015
1014
1014
1014
1017
1016
1014
1017
1018
1021
1019
1019
1016
1016
1022
1023
1021
1020
1017
1020
1019
1019
1015
1014
1011
1013
1008
1010
1006
1002
1001
1004
1005
1008
1005
1006
1005
1005
1003
1004
1003
1001
999
995
991
993
995
996
1001
1004
1003
1001
999
995
992
991
992
994
995
994
992
994
997
997
997
994
988
989
993
994
992
989
985
984
991
995
995
994
988
988
989
986
982
980
980
984
990
991
992
986
981
980
985
987
992
988
985
984
983
981
982
989
987
988
981
979
978
979
981
983
984
983
983
982
980
979
979
981
986
991
990
990
989
988
983
983
981
984
985
990
988
988
984
985
987
989
988
986
986
988
992
993
993
991
992
990
994
993
990
987
981
984
986
991
993
994
990
987
989
995
996
998
999
1005
1015
1039
1097
1171
1205
1173
1112
1079
1075
1080
1084
1084
1085
1090
1088
1087
1084
1083
1081
1080
1077
1075
1076
1072
1071
1067
1061
1052
1037
1019
1005
993
979
959
934
915
905
909
912
918
917
915
912
911
907
909
910
918
926
932
936
937
939
944
950
956
956
952
952
948
951
956
955
958
958
960
962
964
965
966
965
965
969
970
967
966
965
966
967
967
969
967
965
964
967
967
969
967
964
966
967
967
968
966
964
965
967
971
970
967
967
969
973
975
977
977
976
979
979
981
982
982
983
983
986
988
990
992
992
992
993
997
998
997
998
1000
1001
1001
999
999
999
999
999
1001
998
996
996
997
996
999
996
992
991
989
992
992
990
986
986
985
985
986
984
986
982
982
985
986
983
982
976
977
974
978
976
975
975
975
975
976
973
968
967
965
964
966
966
965
963
964
963
963
964
963
960
962
962
959
960
958
956
956
958
959
956
953
949
954
954
955
953
951
951
951
951
952
953
951
947
948
948
951
950
945
945
946
945
947
949
943
944
943
946
947
943
943
940
942
943
945
943
941
940
939
941
943
942
940
938
939
939
941
940
939
936
935
939
939
938
937
935
935
940
938
938
936
934
936
938
940
941
936
934
937
938
939
941
939
937
938
937
940
941
937
935
936
938
942
942
941
940
941
942
946
948
947
952
959
971
997
1057
1138
1170
1127
1062
1027
1021
1028
1030
1031
1032
1036
1036
1040
1041
1038
1039
1037
1034
1034
1035
1036
1036
1036
1031
1027
1016
1004
993
985
974
956
935
918
912
914
920
925
928
926
922
919
915
910
908
908
912
915
915
913
911
910
915
915
917
910
908
905
905
907
907
910
911
911
914
916
916
915
917
919
920
922
922
921
918
919
922
922
919
919
920
919
922
923
922
923
919
921
923
924
924
922
920
923
924
923
925
926
925
928
929
933
933
933
933
935
937
939
941
942
944
944
949
951
954
952
953
954
957
960
962
960
960
961
962
966
968
965
964
965
967
966
966
966
961
964
964
966
965
962
962
963
963
963
962
958
957
957
958
958
959
956
954
955
959
961
960
959
956
956
959
957
957
954
953
953
956
956
955
953
952
953
952
952
949
945
942
945
948
948
949
946
944
944
946
948
943
946
942
945
946
946
944
942
942
941
944
941
943
942
941
937
940
941
941
934
935
936
938
939
938
939
936
938
937
939
936
934
933
935
935
937
936
934
932
932
932
936
937
933
931
931
935
935
935
933
932
934
934
936
936
935
931
928
932
932
935
933
931
931
933
934
935
934
932
931
933
933
932
932
930
930
933
934
931
929
929
928
931
932
930
930
928
928
931
932
933
931
929
933
935
935
936
937
934
935
935
935
936
935
936
935
938
939
942
942
944
948
954
959
964
974
995
1052
1123
1168
1149
1092
1045
1029
1030
1033
1033
1033
1032
1033
1036
1039
1039
1038
1033
1030
1031
1033
1033
1030
1032
1031
1033
1035
1033
1024
1012
999
990
984
972
957
938
926
924
924
929
938
938
935
934
933
925
918
914
914
914
917
919
919
920
918
920
921
928
926
922
921
923
922
920
919
917
922
925
929
929
927
929
932
935
936
939
935
934
935
938
940
941
941
938
942
943
946
946
944
940
942
941
944
940
938
936
939
942
945
949
947
945
946
951
953
956
954
954
959
961
965
962
960
958
960
964
970
971
971
972
972
975
979
979
977
979
979
984
985
988
986
985
985
987
990
994
991
992
994
995
996
991
993
991
990
992
993
992
992
987
991
990
993
991
990
985
984
985
981
981
977
975
978
980
982
981
979
977
976
980
987
987
986
984
984
984
984
984
982
975
974
974
976
976
978
978
976
978
976
975
973
970
970
972
973
973
976
977
980
979
976
974
968
965
966
967
970
972
970
969
970
970
969
968
969
968
975
977
975
972
966
959
961
963
967
972
971
969
967
969
971
972
974
973
969
967
965
962
961
962
963
968
970
970
970
969
970
970
973
967
966
964
963
968
970
972
973
971
972
973
972
970
969
969
971
974
972
972
969
969
971
974
974
970
964
963
969
974
980
982
977
972
971
973
976
974
971
970
974
978
981
981
981
981
983
984
981
977
971
969
971
978
983
984
981
978
980
986
990
992
997
1004
1026
1072
1147
1198
1185
1125
1077
1064
1070
1075
1074
1070
1073
1075
1079
1079
1077
1077
1075
1072
1069
1067
1071
1070
1073
1070
1070
1068
1060
1043
1028
1016
1003
992
974
950
932
926
928
932
934
932
931
930
929
928
922
915
916
922
931
938
943
944
945
949
956
958
958
954
957
959
963
963
965
962
963
967
969
976
981
981
979
978
976
977
979
982
986
988
986
984
982
979
980
983
987
989
987
986
984
987
985
985
986
988
991
993
996
995
994
993
994
997
1000
1002
1001
1002
1002
1004
1008
1008
1008
1008
1012
1016
1018
1019
1018
1016
1020
1022
1025
1026
1023
1023
1026
1026
1028
1029
1025
1024
1024
1025
1026
1025
1023
1021
1019
1019
1019
1016
1016
1014
1012
1013
1013
1012
1008
1005
1003
1005
1005
1004
1002
999
999
999
1002
999
996
994
995
997
997
996
996
996
997
998
999
996
995
993
992
990
988
990
989
986
987
987
990
988
985
984
980
982
979
974
975
974
975
978
978
974
975
970
974
973
975
974
969
966
965
967
969
967
965
963
966
965
966
965
962
960
961
962
964
958
958
955
959
959
959
957
954
953
954
952
955
955
954
950
953
952
954
953
952
949
951
951
952
950
949
946
948
949
950
949
945
942
947
947
948
947
946
945
943
947
947
948
946
942
942
944
945
945
945
943
943
945
946
946
944
942
944
945
946
946
943
942
944
943
945
946
944
943
944
944
946
945
945
945
947
946
950
949
950
950
955
963
973
987
1019
1087
1159
1177
1127
1064
1032
1024
1031
1034
1038
1040
1042
1042
1045
1046
1049
1043
1038
1035
1035
1041
1040
1035
1032
1026
1018
1004
992
983
973
957
936
917
907
907
911
915
920
920
918
914
905
903
903
903
905
909
911
910
914
915
915
915
915
913
914
913
911
907
904
903
908
911
913
911
915
911
915
919
921
920
920
918
920
921
921
921
921
919
921
924
924
923
922
919
922
924
924
921
923
921
924
927
925
924
927
923
925
926
927
927
927
927
929
934
937
937
935
934
939
941
943
944
946
946
948
953
954
958
956
956
958
961
964
963
961
960
963
966
967
965
964
962
964
966
966
963
962
956
959
959
960
958
956
955
955
956
956
955
952
951
950
949
953
950
948
946
950
951
953
952
949
949
950
956
952
954
949
947
951
951
952
951
951
949
949
951
949
949
945
941
940
944
945
945
942
941
942
944
944
945
940
938
940
945
944
942
940
939
938
939
939
938
938
937
936
939
936
936
935
933
931
932
933
932
932
929
930
931
931
932
929
928
929
928
930
930
926
927
929
928
929
927
927
926
926
928
927
929
926
925
928
927
929
928
926
924
927
928
929
929
925
923
926
927
926
927
924
925
925
926
929
926
926
926
927
929
931
930
927
927
930
931
933
932
931
930
928
932
933
933
932
929
935
935
937
939
939
939
943
949
956
964
976
1008
1076
1154
1179
1138
1069
1026
1015
1023
1028
1027
1028
1027
1030
1033
1036
1032
1032
1025
1025
1027
1030
1029
1028
1027
1027
1026
1021
1009
996
984
977
969
953
935
918
917
923
934
939
936
934
926
922
919
915
913
911
909
913
916
916
913
910
911
915
917
915
915
911
908
906
910
913
916
912
912
916
918
921
920
922
921
918
920
922
922
920
918
922
924
925
925
923
921
923
925
928
926
927
924
926
927
928
927
927
927
928
929
933
933
931
932
934
938
939
940
941
939
944
949
951
952
951
950
952
956
957
958
958
957
957
963
963
965
965
963
966
967
969
965
966
965
967
971
969
970
970
965
966
967
966
967
967
965
964
966
964
965
960
960
962
964
968
967
965
966
962
963
962
959
959
960
961
960
959
958
959
957
956
957
954
952
951
950
952
954
953
954
953
954
953
954
954
952
951
948
948
950
951
949
948
947
947
950
951
951
950
947
947
946
946
947
945
945
947
948
949
945
941
938
936
937
942
943
943
940
943
944
945
945
944
943
941
942
942
943
941
940
942
943
944
945
943
943
945
950
947
947
941
939
941
944
945
944
945
945
945
948
949
949
947
946
947
947
949
949
949
948
950
950
952
950
945
942
944
946
947
948
946
946
947
950
953
954
954
956
957
956
956
958
956
959
962
964
969
976
992
1035
1114
1179
1185
1131
1074
1045
1043
1050
1047
1044
1039
1038
1039
1042
1043
1043
1038
1036
1037
1045
1048
1048
1046
1040
1036
1031
1020
1007
991
980
969
956
940
923
911
912
920
930
935
935
934
928
927
928
933
934
937
939
943
947
952
952
950
947
949
949
949
944
942
941
950
958
965
967
961
959
960
964
969
967
964
960
959
963
969
971
973
972
971
974
977
973
975
972
975
974
972
972
979
979
986
988
986
984
979
976
980
983
988
989
991
989
993
994
1002
1002
1004
1003
1004
1007
1010
1011
1009
1010
1013
1016
1016
1011
1009
1012
1014
1015
1018
1021
1020
1020
1017
1016
1011
1008
1011
1015
1016
1015
1013
1009
1005
1005
1007
1007
1008
1007
1005
1000
997
995
996
998
1000
1003
1005
1005
1001
999
998
997
998
1000
997
994
989
987
989
994
992
991
985
979
975
975
983
988
990
985
987
986
985
980
976
974
973
979
984
984
983
980
984
987
984
979
974
972
975
981
983
983
980
980
985
983
982
975
968
971
975
979
982
982
982
981
981
979
976
975
976
971
974
977
976
973
974
976
980
982
979
972
970
973
978
978
977
970
969
970
973
977
977
975
972
972
975
977
977
973
970
967
970
973
973
974
975
974
973
972
972
974
974
971
972
973
971
974
972
971
973
977
978
977
971
970
969
971
972
972
973
974
974
974
976
973
972
974
975
977
978
979
979
980
984
996
1004
1024
1068
1141
1197
1192
1135
1080
1060
1058
1063
1063
1066
1067
1069
1071
1070
1071
1070
1065
1059
1053
1054
1057
1056
1050
1046
1037
1033
1023
1010
990
975
962
950
935
914
895
887
889
896
904
908
902
897
896
896
901
907
910
912
917
923
926
929
931
932
934
937
937
937
935
931
931
935
940
941
941
941
941
944
948
950
950
947
945
946
948
947
948
944
945
948
949
949
947
946
946
950
950
949
948
948
946
948
949
950
951
949
949
953
954
955
954
955
956
958
961
962
963
965
964
968
971
972
972
975
976
980
981
983
982
983
984
987
990
988
985
989
988
993
994
994
993
990
991
990
991
991
990
987
984
985
986
986
986
986
982
982
984
983
982
979
975
974
974
974
973
971
970
968
971
969
966
963
960
960
961
961
958
957
955
956
960
957
955
952
952
955
956
957
955
952
951
952
954
955
954
952
949
951
952
951
950
948
946
946
946
948
943
943
943
946
944
944
943
939
939
938
941
939
940
938
937
939
940
938
936
936
934
934
935
937
933
933
931
932
934
934
932
931
930
932
933
933
933
929
930
931
933
933
933
932
929
929
933
932
931
929
930
931
932
933
934
933
930
931
931
933
932
929
930
929
932
932
931
930
930
933
934
934
933
931
932
931
935
934
935
933
934
936
937
939
939
937
939
940
948
949
957
965
981
1026
1105
1173
1173
1114
1049
1026
1027
1031
1031
1031
1032
1035
1040
1040
1041
1040
1037
1036
1037
1040
1039
1038
1034
1031
1031
1024
1010
996
983
978
971
957
937
921
910
914
921
928
927
925
920
918
913
913
908
908
907
910
913
917
914
914
914
915
920
918
915
912
907
908
913
914
916
916
915
918
920
924
924
922
921
924
926
925
925
923
924
924
927
925
925
924
925
927
928
929
927
926
926
928
928
928
928
926
928
932
933
933
932
933
933
937
941
941
942
943
943
946
947
950
952
950
952
957
958
961
960
961
962
966
968
970
971
971
970
973
975
974
974
973
973
973
975
976
974
975
976
977
977
977
974
970
967
969
970
969
967
965
960
961
963
962
958
956
950
949
950
953
951
950
947
951
948
950
949
947
946
948
948
950
948
947
945
945
947
947
948
946
945
946
949
948
945
945
942
946
946
946
944
944
944
945
944
944
941
942
942
942
942
943
942
941
940
941
943
943
940
939
936
938
940
938
938
936
936
936
940
938
937
936
933
936
938
936
935
934
935
937
938
938
937
934
936
935
937
936
935
931
931
932
935
935
934
930
932
934
933
933
935
931
934
934
935
935
934
933
935
936
940
940
939
938
937
940
944
941
939
940
942
943
945
944
945
944
943
945
946
944
945
945
944
950
951
953
954
956
959
966
974
981
1009
1059
1140
1189
1160
1089
1040
1028
1032
1039
1042
1040
1042
1041
1042
1043
1040
1039
1034
1033
1040
1044
1044
1040
1033
1026
1015
1008
997
984
974
960
941
925
912
904
907
909
918
925
927
925
922
919
918
920
923
929
936
941
947
951
950
947
944
940
940
941
944
943
945
948
949
952
953
956
953
953
952
954
954
954
956
955
956
959
961
958
956
958
955
958
960
959
960
961
959
960
963
962
962
962
964
966
968
972
970
968
966
970
972
971
973
972
972
975
976
977
978
977
981
985
989
991
992
992
990
993
995
994
994
998
1001
1002
1005
1006
1005
1003
1000
1002
1003
1006
1007
1006
1010
1013
1014
1014
1011
1007
1003
1004
1006
1004
1000
996
994
993
993
993
990
990
990
993
995
995
995
990
987
985
985
984
983
980
984
984
984
982
979
980
980
983
986
984
983
978
979
979
981
982
983
984
983
987
987
986
985
982
983
986
989
990
989
984
982
982
979
977
977
980
983
986
984
982
982
982
979
979
980
979
980
979
983
988
991
993
989
982
980
981
982
981
978
976
973
976
977
978
980
977
977
978
979
980
981
980
983
986
985
984
981
976
976
976
979
982
981
979
978
980
982
980
979
980
980
981
985
985
980
977
976
980
985
986
980
977
979
981
986
985
987
986
981
979
981
978
982
980
980
983
984
986
988
986
981
977
978
979
984
986
984
985
988
991
989
988
990
989
992
993
994
993
993
997
995
994
991
988
992
999
1007
1024
1056
1120
1185
1201
1160
1106
1078
1073
1078
1080
1076
1076
1073
1072
1071
1078
1086
1085
1080
1072
1067
1068
1072
1073
1070
1068
1060
1048
1035
1020
1008
993
985
973
959
940
920
907
901
904
917
925
936
944
951
961
973
982
990
994
1001
1004
1008
1009
1005
1000
998
1002
1004
1007
1002
996
993
991
994
994
994
993
993
994
992
992
991
990
988
989
991
990
987
987
985
988
989
991
991
989
990
991
992
994
994
992
992
993
992
992
991
990
990
993
996
997
998
997
997
998
1001
1001
1002
1001
1001
1004
1005
1003
1002
1003
1003
1007
1011
1011
1013
1012
1012
1016
1017
1016
1016
1017
1018
1024
1025
1024
1023
1021
1023
1026
1027
1024
1026
1024
1025
1027
1026
1021
1017
1015
1014
1013
1013
1011
1010
1006
1005
1004
1004
1003
1000
996
992
996
997
995
995
992
991
992
991
991
988
988
986
987
989
988
987
986
984
987
988
987
985
983
984
983
986
985
983
981
981
982
982
982
980
978
974
977
979
978
978
973
976
975
975
975
972
970
972
972
973
972
970
968
966
969
970
967
966
964
961
962
964
965
964
961
962
963
963
963
961
960
960
956
963
961
960
957
958
958
959
959
959
957
955
957
960
958
957
955
954
952
955
955
955
952
955
954
958
957
955
955
951
953
955
956
956
955
956
956
958
957
954
954
954
956
957
956
958
957
956
956
958
957
955
953
955
955
957
957
958
955
954
955
958
958
954
953
953
955
956
956
956
955
956
959
960
961
962
963
966
972
979
993
1026
1091
1144
1146
1099
1052
1033
1036
1041
1045
1045
1049
1052
1055
1056
1061
1061
1061
1058
1056
1058
1063
1064
1062
1056
1049
1042
1036
1026
1017
1017
1022
1030
1027
1017
1004
996
998
1004
1017
1034
1041
1039
1031
1020
1013
999
985
973
958
947
940
937
933
930
929
927
925
930
926
925
921
919
919
919
919
920
915
915
915
918
917
914
912
913
914
914
913
911
911
910
913
913
911
910
909
909
909
910
911
911
907
909
910
914
913
911
909
909
911
913
912
912
910
912
914
918
918
919
917
918
923
927
928
928
927
929
932
934
936
939
941
944
947
951
955
957
958
958
962
962
961
963
963
963
967
967
968
968
965
963
963
961
961
958
958
957
958
960
960
957
955
955
957
958
958
955
952
955
956
956
955
954
952
952
955
958
957
956
954
954
956
958
956
954
955
953
955
956
958
954
951
952
953
956
956
951
949
949
951
952
953
951
948
947
949
950
949
948
944
942
944
946
947
943
945
943
944
946
944
944
943
941
942
944
945
943
943
942
945
943
945
942
942
941
944
947
947
944
943
942
941
946
946
944
944
942
944
945
947
943
943
943
941
945
946
943
940
944
946
946
946
946
944
943
945
945
945
944
944
943
947
946
947
947
944
944
945
948
948
949
944
944
947
949
948
948
944
947
947
950
949
948
947
946
951
953
954
950
950
951
954
957
961
961
963
969
983
1008
1065
1140
1170
1129
1075
1044
1038
1037
1040
1038
1040
1042
1042
1044
1045
1044
1042
1044
1045
1045
1040
1036
1031
1021
1011
1003
1003
1003
1005
1002
996
985
982
990
1008
1034
1051
1061
1059
1053
1046
1035
1024
1009
990
974
968
960
954
947
944
942
943
945
943
939
934
936
937
936
935
933
932
931
930
933
932
930
928
927
928
930
930
928
928
928
929
929
929
929
929
926
930
929
929
926
924
922
923
927
929
927
926
926
930
933
930
930
930
929
933
935
938
942
944
944
950
952
955
955
953
951
951
954
954
957
958
962
965
966
964
964
965
959
959
964
964
965
967
966
968
970
969
965
963
960
962
965
966
968
969
972
971
971
970
967
967
968
967
967
966
964
964
965
966
967
967
966
968
966
968
972
970
971
969
968
969
971
971
969
965
963
961
963
961
960
959
959
964
968
967
965
963
958
960
961
959
960
960
960
959
959
958
958
957
957
961
966
961
960
959
958
958
961
959
956
954
952
959
962
963
966
964
964
961
960
953
953
957
960
963
966
965
964
964
964
964
963
963
958
957
959
961
965
965
961
960
956
960
966
971
974
973
970
970
971
968
967
969
969
973
973
970
968
966
968
974
974
972
970
969
967
971
972
973
975
974
976
978
980
980
979
980
978
979
976
974
970
972
973
980
988
990
991
991
989
991
992
991
993
998
1014
1045
1103
1175
1211
1179
1114
1075
1067
1070
1074
1075
1072
1067
1061
1054
1048
1047
1058
1077
1098
1115
1122
1121
1116
1115
1110
1108
1109
1110
1113
1113
1112
1106
1097
1079
1057
1035
1019
1009
1005
1005
1004
1001
993
985
976
972
970
971
969
966
963
959
963
969
971
966
955
949
947
952
962
963
958
951
944
950
955
958
951
949
944
942
942
939
937
938
943
952
955
950
942
937
932
937
942
946
949
950
952
948
952
954
957
955
955
953
955
955
963
970
973
978
981
980
976
977
978
986
995
997
994
990
987
992
996
996
995
996
999
1004
1009
1007
1002
998
994
995
997
996
997
998
1003
1005
1003
1000
997
993
991
995
995
993
997
996
998
999
1000
997
995
995
995
995
994
990
990
991
989
994
996
992
991
990
989
989
989
986
987
989
988
986
984
980
981
978
980
979
985
985
986
983
979
977
978
977
978
977
977
980
980
978
976
974
973
976
979
980
977
973
973
976
978
977
975
975
973
976
979
976
975
972
972
974
976
975
971
970
966
969
973
969
972
974
972
973
976
973
971
971
969
972
974
972
970
969
968
968
969
966
970
970
969
970
970
970
969
965
966
967
968
967
965
964
965
965
968
967
964
966
964
967
967
967
965
966
964
964
968
968
965
964
964
966
966
967
964
964
963
962
967
967
969
966
967
970
975
977
982
990
1011
1068
1142
1179
1144
1078
1047
1061
1092
1115
1127
1135
1138
1135
1131
1119
1112
1101
1091
1082
1075
1070
1064
1053
1042
1030
1024
1014
1002
991
981
971
967
962
956
951
948
947
947
942
938
936
934
934
933
932
929
927
923
925
927
923
922
919
917
915
918
915
914
909
909
909
909
906
908
903
902
904
903
899
901
897
896
897
897
896
896
894
893
895
897
897
896
896
896
897
901
902
902
903
903
908
912
913
915
917
920
924
930
936
937
942
943
946
949
953
954
957
956
958
961
962
960
960
960
958
959
957
955
955
954
953
955
952
952
951
950
951
952
951
950
947
947
948
951
948
947
947
946
946
949
948
947
945
943
944
947
945
945
942
943
942
941
942
940
938
938
938
943
940
937
935
935
935
937
938
934
929
932
935
935
932
932
931
933
932
935
932
932
931
930
929
930
931
928
928
928
930
930
931
929
926
925
928
931
929
929
925
927
929
930
928
928
926
926
929
931
929
928
924
923
929
930
926
927
928
926
927
927
926
926
926
927
929
927
929
927
926
929
931
931
931
929
927
928
927
930
931
929
927
929
929
932
931
930
927
930
931
932
932
930
929
927
932
933
934
931
928
930
934
935
933
933
933
932
931
936
935
934
932
931
935
938
935
935
935
934
936
937
933
932
933
935
936
940
938
937
937
937
938
941
941
939
939
941
956
995
1075
1160
1195
1167
1128
1114
1115
1124
1128
1132
1133
1126
1113
1100
1089
1076
1069
1054
1038
1022
1008
998
987
978
967
958
949
944
942
939
936
930
928
924
922
923
919
919
913
913
914
915
911
908
907
905
906
906
902
902
899
898
898
897
899
892
891
889
893
891
891
888
885
884
886
886
886
884
882
882
883
886
885
883
885
885
885
887
888
890
889
889
895
900
900
901
904
907
912
915
917
918
918
921
925
930
932
935
934
937
943
944
945
944
941
944
948
948
952
950
948
948
949
949
948
949
945
944
948
948
947
945
943
944
946
947
946
945
942
944
944
946
944
946
942
943
942
946
943
943
940
940
943
944
944
942
938
939
939
939
938
934
932
934
935
935
935
937
936
936
936
937
935
935
933
934
937
940
939
937
934
934
934
935
935
933
933
935
937
940
939
935
930
931
933
935
938
935
933
934
930
932
932
932
935
939
941
942
943
940
936
936
936
941
942
940
938
940
939
937
936
934
931
932
938
941
945
943
940
943
940
943
944
944
943
943
944
944
941
939
937
938
941
943
945
946
944
946
947
949
946
942
943
943
945
948
947
947
945
947
950
948
950
949
948
948
952
952
955
954
951
948
949
949
946
945
945
948
950
955
955
958
956
958
956
958
957
956
951
949
950
948
944
945
951
970
995
1018
1036
1049
1061
1076
1086
1107
1165
1234
1255
1225
1176
1147
1133
1125
1110
1093
1077
1067
1053
1037
1019
1008
999
993
990
985
