849
849
849
849
849
849
849
852
854
856
856
859
858
857
855
853
854
853
854
857
859
859
856
856
859
859
858
859
857
858
857
858
860
863
863
863
862
861
860
858
858
859
856
859
864
865
865
864
863
863
863
862
862
861
861
863
864
866
864
864
863
860
859
859
860
861
863
864
865
864
867
864
865
864
862
862
862
861
861
864
867
866
868
865
865
865
864
863
861
863
864
866
865
866
867
868
870
869
867
865
865
869
869
873
874
876
876
876
875
874
876
875
874
875
875
877
878
880
878
880
878
881
880
876
873
877
877
877
877
878
877
874
873
870
868
865
864
864
866
870
869
870
871
873
871
871
869
874
875
880
883
893
906
923
944
966
991
1014
1033
1047
1055
1063
1066
1077
1081
1083
1073
1060
1045
1027
1008
988
968
950
935
921
915
906
894
891
887
881
879
881
880
880
882
881
885
886
886
886
888
887
885
883
884
884
885
887
888
891
891
892
891
891
890
890
890
888
893
893
893
896
895
896
896
893
893
890
888
890
889
893
891
894
896
897
896
894
893
896
894
893
896
897
899
901
900
900
901
899
899
899
898
898
902
905
907
909
908
910
908
910
908
908
907
906
908
908
910
911
909
909
909
906
904
901
901
903
899
903
901
901
900
898
896
895
890
887
886
885
882
881
879
877
879
875
873
873
872
869
867
868
868
871
871
873
872
873
870
869
866
866
866
866
868
869
868
871
871
871
870
865
866
865
864
864
865
866
865
866
864
864
863
863
860
859
856
857
858
859
859
860
859
858
858
857
856
854
853
853
855
855
854
858
858
856
857
854
852
853
851
850
853
853
855
854
853
854
852
856
852
851
851
850
853
856
856
857
856
856
856
857
853
852
854
853
856
857
858
860
859
858
857
857
858
854
851
854
856
857
860
861
861
863
860
859
859
858
858
859
859
860
860
861
863
863
861
859
857
856
856
857
857
858
859
861
862
863
860
859
858
859
858
859
859
861
861
866
864
862
861
863
860
861
859
859
859
861
864
864
862
863
862
860
861
862
864
865
866
870
872
875
875
874
873
870
868
867
869
872
872
873
876
877
875
874
874
873
872
873
874
871
871
872
872
872
869
868
867
864
863
861
862
860
862
864
863
867
866
867
864
864
864
864
863
866
868
872
878
884
893
903
925
948
972
993
1012
1027
1035
1043
1052
1060
1064
1060
1051
1038
1022
1003
979
961
943
924
912
901
896
887
880
875
872
870
868
868
870
872
874
877
879
877
875
874
874
873
874
874
872
876
876
880
882
882
879
879
878
879
875
879
875
880
881
884
885
885
883
881
881
882
880
880
881
881
884
888
886
885
888
887
884
883
885
886
887
888
889
894
893
893
889
892
892
892
893
891
892
895
897
897
897
900
899
899
897
897
895
894
895
898
900
901
897
896
896
895
892
888
889
889
887
886
886
887
886
888
882
880
881
874
871
872
871
869
868
867
867
868
867
865
860
859
859
857
857
859
859
861
861
861
862
856
854
855
854
853
854
855
855
859
859
860
860
855
854
854
850
850
851
852
852
856
855
855
854
853
851
850
849
849
848
849
850
852
852
850
852
849
847
846
845
844
846
845
847
849
847
849
847
845
845
844
843
844
845
845
849
849
849
851
850
850
848
846
845
846
846
846
847
850
851
851
848
848
847
845
843
842
843
847
845
851
851
852
849
847
844
843
844
846
845
844
845
845
845
845
845
846
841
843
842
841
840
840
841
840
842
842
840
840
835
833
832
830
830
828
829
828
830
833
832
829
828
826
826
824
825
825
827
826
825
823
823
823
820
820
820
819
820
819
822
822
822
825
824
824
821
820
816
817
818
818
820
823
823
822
819
818
820
819
821
822
824
825
825
828
831
831
828
826
825
823
822
825
825
825
825
826
825
826
825
824
826
824
823
823
821
819
821
817
817
817
813
810
808
808
809
811
811
812
812
812
812
814
813
813
814
812
814
814
818
822
826
837
851
864
884
899
917
935
952
967
977
986
993
1003
1008
1010
1000
989
974
953
927
904
883
864
850
840
830
827
822
815
813
812
809
810
816
817
820
820
823
821
821
822
821
818
820
820
821
823
826
828
827
828
829
825
825
827
826
827
828
829
830
833
835
836
835
834
834
830
827
826
831
832
835
836
837
836
836
838
838
838
835
838
838
840
841
842
843
845
844
844
843
842
842
844
845
849
849
853
854
854
853
854
853
852
852
853
853
854
854
855
858
856
856
855
853
851
849
848
850
851
852
852
851
847
847
847
843
839
841
841
838
835
834
835
834
833
833
831
827
824
826
824
826
827
829
830
828
830
829
827
822
822
824
827
828
830
831
833
831
830
828
826
826
825
823
824
825
826
828
830
829
827
824
822
821
821
821
821
821
822
823
824
824
823
823
822
820
819
818
819
820
822
822
824
825
825
822
822
821
821
821
821
822
824
825
824
824
825
824
823
823
817
819
821
822
825
827
831
829
829
827
827
824
824
827
829
831
829
834
833
834
834
833
833
831
831
829
831
833
835
837
839
834
835
838
837
835
830
832
834
833
834
838
839
839
841
841
838
836
836
835
837
838
839
839
841
841
842
841
839
833
835
835
835
838
841
845
845
845
842
844
841
841
839
840
841
841
845
846
848
847
848
850
849
851
853
854
855
856
855
857
856
859
859
858
860
859
857
857
858
858
861
860
863
862
863
863
860
858
855
853
853
852
852
854
852
852
854
854
853
852
851
845
848
849
851
852
857
860
862
861
860
860
864
874
885
900
917
941
964
986
1006
1019
1032
1038
1043
1050
1056
1059
1059
1052
1042
1028
1013
996
976
958
938
920
906
894
884
878
872
868
864
864
864
863
863
864
866
866
866
866
869
870
870
869
868
866
868
869
871
870
871
871
872
873
871
871
873
871
873
873
874
874
875
876
878
879
879
878
877
875
876
876
878
879
878
881
882
881
882
879
881
881
880
879
881
881
883
884
887
888
888
888
886
887
886
885
885
888
889
891
894
892
894
892
891
892
890
890
890
889
891
891
891
891
891
888
887
884
882
881
880
880
881
880
880
875
874
870
869
864
860
860
862
860
860
860
860
858
859
857
854
854
852
855
857
857
857
858
857
856
857
857
855
857
853
856
857
855
858
853
853
857
855
856
855
854
852
852
850
851
853
855
855
854
854
853
850
846
847
847
846
848
848
853
853
853
850
851
849
849
850
847
847
847
848
850
852
853
854
851
849
847
846
847
850
850
853
851
854
854
855
855
853
853
850
851
851
855
855
857
860
861
860
856
857
856
857
857
858
859
860
864
864
862
862
862
861
861
858
860
858
861
862
866
868
868
866
866
863
863
862
863
861
865
867
869
870
868
869
866
866
867
864
863
862
865
867
871
870
871
868
869
867
864
864
863
867
869
871
874
875
874
874
874
873
871
869
868
870
871
872
873
877
876
876
875
875
875
872
874
873
877
880
882
885
885
883
883
880
883
883
884
885
887
889
889
890
891
887
885
885
885
887
886
888
890
889
887
888
885
881
881
878
877
876
874
875
877
878
880
881
884
881
879
881
879
878
879
880
885
888
894
907
921
941
964
990
1017
1044
1065
1081
1092
1099
1104
1111
1110
1105
1092
1078
1064
1050
1034
1017
998
980
964
947
928
913
898
890
883
882
882
885
885
889
893
894
896
893
892
890
888
888
889
888
890
891
893
895
894
892
891
891
890
891
891
891
891
893
892
892
892
894
896
895
895
895
893
894
894
894
896
896
901
901
901
898
896
894
893
894
897
898
897
900
899
900
899
898
899
897
896
896
897
901
899
902
903
902
900
898
895
897
896
896
896
898
897
901
901
900
897
896
894
891
888
887
887
888
887
887
885
883
878
872
869
866
865
861
862
864
866
868
865
863
862
858
858
857
853
854
856
857
856
854
853
854
855
855
855
851
852
852
850
853
853
857
854
854
855
850
849
847
845
848
851
851
852
855
852
850
848
848
847
844
845
847
845
845
849
848
847
845
844
843
843
842
839
838
843
842
845
844
842
841
844
842
840
834
833
836
837
839
837
841
840
841
838
837
836
835
837
836
837
837
839
842
841
837
839
841
839
839
839
838
842
840
840
842
843
842
840
840
840
838
839
839
841
842
843
845
845
842
841
838
837
837
836
838
839
842
842
846
846
843
842
843
841
840
837
836
839
842
843
845
846
845
844
845
845
844
843
843
845
846
847
846
848
845
841
843
840
840
841
841
843
844
845
847
850
848
846
847
847
845
845
844
844
845
844
848
854
855
855
855
856
855
854
854
854
857
859
863
863
862
862
859
858
856
853
853
857
857
859
864
862
861
861
858
856
857
853
849
852
847
847
849
850
852
852
851
849
850
847
847
848
851
853
857
857
858
858
860
864
870
883
900
922
951
977
1003
1027
1044
1055
1065
1067
1072
1073
1073
1068
1059
1049
1039
1028
1015
998
980
964
946
927
909
895
882
873
868
863
863
861
863
860
859
859
859
860
861
863
864
863
863
863
865
862
861
863
861
865
866
867
867
869
871
871
869
868
867
867
868
867
869
869
875
876
876
875
873
870
872
873
873
874
875
876
880
880
879
876
876
877
876
877
874
877
879
882
885
887
887
883
881
880
881
882
882
884
886
888
890
890
891
888
888
887
887
887
885
886
886
885
887
888
886
885
884
880
880
876
872
873
874
873
874
871
868
866
865
863
860
859
857
857
854
855
857
856
853
851
850
849
848
845
844
845
846
847
851
852
855
854
855
849
848
849
850
851
852
854
856
855
855
854
853
852
851
849
850
849
848
850
851
852
852
852
848
848
846
845
844
846
845
847
849
847
847
845
845
844
841
841
840
840
842
844
845
849
848
848
848
848
844
841
843
844
846
846
849
849
850
850
845
846
848
845
846
847
848
848
848
850
850
851
850
851
850
849
848
851
850
854
854
854
854
854
850
849
852
849
851
853
853
855
857
858
857
855
856
854
850
851
851
855
856
856
858
860
859
858
857
852
852
853
854
857
860
861
862
860
859
860
859
860
859
856
855
855
858
857
860
860
864
862
862
860
856
857
854
858
860
862
863
859
861
859
858
859
857
856
861
862
861
863
868
871
875
877
876
873
870
869
868
870
874
877
879
880
878
879
876
875
874
872
874
876
882
884
884
884
885
885
885
879
877
877
873
875
875
875
877
878
878
879
878
877
878
876
876
878
878
880
882
886
887
890
892
896
904
921
944
975
1008
1037
1064
1084
1095
1102
1106
1106
1106
1103
1099
1088
1076
1066
1053
1035
1012
990
965
943
924
907
901
893
893
895
897
895
895
896
896
892
891
891
893
892
892
897
900
900
900
898
898
896
892
895
895
897
897
901
904
905
903
904
904
902
900
899
899
899
902
903
907
910
912
912
913
912
909
907
910
910
912
912
913
915
914
918
917
916
917
915
915
915
916
916
918
921
920
923
923
922
921
920
920
920
922
922
924
926
927
929
926
927
924
921
919
918
920
923
925
927
925
921
917
915
914
913
914
913
913
914
914
912
912
907
903
902
900
897
896
893
895
892
892
893
894
893
892
891
887
885
886
886
889
891
892
896
894
896
894
892
890
888
890
888
890
891
892
893
893
891
891
888
886
886
887
888
892
892
891
892
891
889
889
889
886
885
884
883
879
881
883
883
884
883
880
879
879
878
880
882
880
881
883
883
883
882
881
880
881
879
877
880
880
884
885
885
885
884
882
883
880
881
881
883
886
886
887
888
885
887
887
885
885
884
886
885
885
886
888
889
889
889
888
889
888
887
887
887
888
888
890
891
890
892
891
889
888
886
886
888
891
892
891
893
891
890
889
889
883
882
885
885
885
887
891
892
891
890
885
886
886
884
886
886
888
889
888
889
890
891
890
890
885
883
884
885
886
888
889
889
890
887
888
889
887
886
887
888
888
887
892
895
895
899
900
900
898
898
897
897
897
899
901
903
902
902
900
898
898
895
896
897
900
899
904
902
903
901
898
894
892
890
890
888
887
888
889
889
889
887
883
882
881
880
883
886
888
889
894
894
893
894
895
897
905
918
937
961
990
1020
1047
1068
1079
1093
1103
1109
1104
1096
1082
1066
1048
1032
1013
993
972
954
934
920
910
898
891
889
890
891
890
893
894
894
896
894
892
891
893
892
895
896
898
899
900
898
895
894
893
893
894
895
896
899
899
901
901
901
900
898
899
899
897
898
899
900
900
903
902
904
900
902
902
898
899
899
901
902
905
906
908
907
906
904
904
903
906
905
907
911
911
911
912
907
907
911
910
906
908
908
909
909
910
910
913
913
914
911
909
907
905
905
906
906
907
906
904
904
901
899
896
894
890
889
890
890
891
889
889
887
883
880
877
875
875
875
875
875
877
876
874
873
872
872
869
866
869
867
868
871
870
870
871
870
869
867
866
865
863
863
865
866
867
865
865
865
865
862
859
860
857
857
858
859
861
860
859
858
858
855
855
853
853
852
854
853
854
856
854
854
854
850
848
848
846
848
850
850
852
852
851
850
851
850
849
848
849
849
846
850
851
851
853
854
850
849
849
848
848
848
849
851
852
853
853
853
855
852
850
852
850
847
851
851
854
856
857
857
854
855
852
851
851
850
851
851
855
856
857
859
856
852
850
850
850
852
853
857
859
860
859
858
858
854
852
852
852
853
855
856
856
856
857
855
856
858
853
855
858
854
857
857
858
858
857
857
856
854
854
856
854
856
857
859
859
860
860
862
860
861
859
858
858
858
859
859
861
864
864
863
862
860
860
862
860
863
864
867
871
876
874
873
871
870
869
868
867
867
868
866
869
868
871
870
872
871
869
869
869
870
870
870
870
869
866
867
862
859
858
855
856
856
858
859
861
862
861
862
857
856
855
857
857
858
859
861
864
869
871
878
888
906
927
953
977
1003
1023
1037
1047
1056
1062
1066
1065
1054
1044
1027
1014
998
979
960
941
924
910
897
885
876
868
862
861
860
860
862
863
866
865
865
865
862
859
861
861
863
863
862
863
866
867
865
866
864
865
864
864
866
867
869
870
872
872
873
870
870
867
868
869
868
870
871
872
875
874
873
873
872
870
870
872
869
872
871
874
874
876
875
875
873
874
874
874
875
875
877
880
880
881
883
882
883
878
877
876
878
878
877
882
885
886
885
884
882
878
876
875
877
881
879
880
880
877
875
873
872
867
869
865
864
863
861
860
863
862
860
858
856
850
849
847
848
851
849
848
850
848
846
847
844
842
838
838
839
839
841
840
841
842
838
835
836
833
832
831
832
835
835
836
837
840
838
835
834
831
832
831
831
830
832
832
833
832
830
830
827
827
825
824
823
824
826
826
828
825
824
823
823
824
823
823
823
822
822
823
826
825
826
824
824
823
821
820
819
822
820
825
825
826
824
823
823
821
822
822
822
823
824
827
829
826
827
829
825
824
823
822
822
824
823
826
827
827
828
828
825
823
822
822
820
824
825
827
829
829
827
828
825
823
820
821
822
824
827
828
830
828
831
828
828
826
826
825
825
828
827
830
831
830
829
829
824
825
824
826
826
828
827
830
830
831
831
830
827
829
827
827
827
827
830
831
833
834
833
832
828
829
830
830
829
831
831
833
833
834
835
830
833
835
835
839
839
844
843
846
846
843
842
844
845
846
844
845
843
844
845
846
846
845
845
846
843
843
840
839
838
838
838
840
841
839
839
838
835
832
832
833
832
832
831
836
839
839
840
841
840
840
840
844
846
856
868
884
906
927
952
978
994
1008
1016
1023
1028
1035
1040
1043
1038
1026
1012
997
980
964
946
927
910
897
886
874
863
855
848
846
845
843
845
845
844
846
847
850
851
851
851
852
849
847
847
847
846
849
852
854
856
857
858
857
856
857
855
855
856
857
859
861
864
864
862
862
861
859
860
859
861
863
863
864
867
866
866
864
864
863
863
863
862
864
864
866
869
868
868
867
867
868
867
868
868
870
869
873
875
877
877
876
875
873
874
873
872
873
874
877
878
878
877
877
873
871
868
868
868
867
868
868
869
866
864
863
859
857
853
852
851
853
850
851
850
848
844
841
841
839
837
835
834
835
836
837
837
836
836
833
832
831
827
827
827
832
833
833
833
832
831
829
828
829
826
822
822
822
823
826
827
825
827
826
823
822
821
817
819
820
818
820
822
821
822
820
817
816
815
815
811
813
815
818
819
819
820
819
818
814
814
815
815
816
816
818
820
821
820
819
818
816
814
815
814
817
820
819
822
823
823
822
821
822
819
819
819
821
820
823
824
824
826
825
824
824
822
819
821
821
821
823
824
824
826
825
824
823
822
820
822
821
824
826
828
828
829
827
823
825
823
820
819
824
825
827
829
829
828
829
823
824
825
824
825
825
827
826
828
828
827
828
827
825
827
821
826
826
827
829
829
831
829
830
830
827
828
827
827
827
828
830
832
830
832
833
834
832
833
835
833
837
839
843
841
839
843
842
842
841
840
838
838
838
836
838
842
844
843
843
841
841
839
836
836
836
837
839
835
836
834
833
832
829
829
828
829
831
831
833
835
836
836
837
836
836
835
836
836
844
858
869
890
917
944
971
990
1007
1019
1024
1028
1036
1040
1040
1036
1021
1010
994
978
962
943
925
908
892
879
869
862
856
847
840
839
837
837
837
837
841
840
841
843
842
842
840
844
842
843
840
843
840
842
843
847
847
845
847
846
845
845
843
845
847
849
847
851
852
853
852
850
848
847
844
844
844
847
847
850
852
855
852
851
853
851
850
850
852
853
853
857
858
856
857
858
855
857
856
856
857
860
863
863
862
866
862
863
861
860
860
862
859
861
864
866
865
864
863
860
860
856
856
855
854
852
853
853
852
848
847
843
844
842
840
839
838
837
837
838
836
833
832
828
826
824
823
823
821
821
823
824
825
824
821
820
816
814
814
815
814
816
817
818
817
815
814
812
815
811
809
810
809
809
809
811
813
811
812
810
807
804
805
804
805
808
809
809
807
806
805
804
801
798
800
800
802
802
802
803
804
803
803
802
801
799
799
801
800
801
803
803
806
805
802
803
801
801
803
803
803
806
803
806
809
808
805
805
803
802
802
803
802
801
801
805
805
808
806
804
805
803
802
804
805
808
807
812
813
812
812
809
808
808
807
808
808
807
809
810
810
813
812
811
813
811
809
809
809
812
814
812
815
815
812
811
810
807
807
807
807
809
811
813
814
815
814
812
811
811
808
809
808
812
812
814
813
813
816
815
814
814
812
815
815
815
818
820
821
822
821
818
817
815
814
816
815
818
820
823
821
822
822
823
827
824
826
830
831
831
829
830
834
834
830
832
831
830
829
829
829
830
831
831
833
831
830
827
829
826
824
820
819
820
817
817
818
816
813
812
811
809
812
813
814
816
813
815
814
814
815
812
816
815
815
815
821
831
846
864
886
914
940
960
976
987
994
1003
1009
1015
1015
1006
996
979
961
938
914
889
871
857
845
835
826
816
808
801
797
792
793
793
794
791
790
789
788
791
793
793
792
792
790
789
791
790
785
786
787
788
793
792
791
790
789
784
783
785
791
792
795
797
797
795
795
795
793
789
791
790
792
790
793
793
794
796
799
796
795
794
793
791
794
796
798
799
801
802
802
802
800
799
797
796
796
795
798
799
799
797
798
796
794
793
791
790
789
790
789
792
791
790
785
782
780
779
779
775
774
774
771
769
770
768
766
763
759
755
752
752
748
749
748
750
747
745
745
740
739
738
732
731
729
729
728
729
730
729
727
724
720
720
713
712
714
716
717
719
720
719
715
715
713
711
708
707
707
710
711
713
712
709
706
703
700
700
699
701
699
699
699
700
699
698
698
695
693
693
691
689
691
694
697
697
700
701
700
696
696
690
687
687
686
686
687
691
690
692
691
690
692
691
688
687
684
687
687
692
691
694
690
687
686
684
686
685
685
686
685
688
689
691
691
690
688
682
682
686
688
689
688
690
692
692
692
691
689
687
687
685
685
689
690
694
695
691
692
687
687
687
689
689
693
691
689
690
691
689
688
689
690
690
691
689
690
692
691
690
693
691
691
692
692
688
689
687
687
687
685
689
689
689
686
686
687
687
687
690
691
689
690
693
693
695
693
689
691
693
694
695
695
696
695
696
699
696
693
695
692
691
693
691
690
691
690
689
691
689
686
685
679
681
680
682
685
686
684
683
682
681
678
678
680
679
679
681
684
685
685
688
697
703
716
729
749
766
789
811
828
844
852
858
860
856
846
831
818
804
789
775
761
745
731
716
704
696
687
682
678
680
679
678
678
681
683
687
688
690
687
686
683
682
682
684
684
684
686
687
690
691
690
690
687
684
687
687
690
694
694
694
692
691
692
694
694
692
690
689
694
696
697
698
699
698
699
698
696
696
694
694
697
699
703
705
707
706
705
703
703
700
701
702
705
705
708
710
712
712
711
710
708
709
709
709
709
712
714
715
717
718
714
710
709
708
709
712
711
714
711
710
708
707
709
708
706
704
701
699
699
700
698
701
701
698
696
692
689
688
687
689
689
689
693
693
694
693
691
692
690
693
693
691
691
692
691
692
695
694
691
690
689
690
687
689
692
693
697
700
698
698
701
699
697
693
694
692
690
692
695
697
700
701
702
703
701
701
697
700
700
701
701
704
708
707
709
706
704
701
698
702
702
706
707
708
708
707
706
705
706
707
709
710
711
712
711
712
713
714
713
712
711
709
712
711
712
713
714
718
719
719
719
717
717
717
712
717
717
717
719
723
725
724
722
721
716
717
717
715
715
717
719
721
723
724
725
727
726
721
722
719
719
719
724
727
725
727
728
725
723
723
721
723
725
725
727
727
728
727
727
727
726
727
724
726
727
729
731
734
736
736
733
734
732
730
729
727
728
729
732
735
739
739
737
738
738
741
741
743
747
746
747
747
749
752
753
753
751
748
748
747
745
747
748
755
758
758
756
755
752
752
748
751
749
751
750
747
750
750
748
747
746
743
743
745
748
750
752
756
756
752
754
753
754
755
758
764
771
778
787
802
821
837
855
871
887
897
904
910
913
916
921
926
920
910
899
885
868
849
832
815
801
786
779
774
772
770
768
768
768
768
767
766
766
768
771
772
775
774
773
772
772
770
769
771
773
774
775
777
777
778
779
779
778
780
779
780
780
780
783
784
785
785
786
786
785
785
787
787
788
791
790
792
793
790
791
790
792
792
791
789
792
794
796
799
802
802
801
802
802
799
798
798
799
801
803
807
810
810
807
812
810
810
808
811
810
810
810
814
815
813
815
814
810
811
807
807
808
810
812
812
813
811
810
809
805
802
803
800
798
799
798
798
799
797
799
799
798
795
791
789
787
790
790
792
793
793
793
792
793
791
790
791
789
792
793
794
796
791
795
791
793
791
790
790
792
792
792
791
792
792
790
791
788
788
789
789
788
787
787
789
792
794
792
793
789
785
784
783
783
787
788
792
792
794
794
792
792
788
784
784
787
785
794
795
797
798
797
796
792
790
787
790
791
794
795
796
796
796
795
795
795
794
795
792
794
792
792
794
796
799
799
799
798
797
795
795
795
794
794
794
798
801
801
804
802
801
802
798
799
799
800
801
804
802
800
801
802
803
802
804
803
801
802
805
806
804
805
802
801
799
799
800
802
803
805
805
807
810
810
810
808
805
804
801
802
803
806
807
810
812
811
812
809
808
808
806
808
808
812
814
816
814
810
812
810
811
814
816
814
816
817
817
817
819
823
823
827
829
828
826
827
825
828
831
834
835
832
832
831
832
830
831
828
830
834
833
831
834
833
833
831
829
829
827
826
826
826
827
828
828
831
829
828
825
826
829
830
832
834
836
839
840
842
847
854
863
878
895
910
932
953
973
992
1002
1005
1010
1014
1015
1016
1006
995
984
971
954
944
924
907
891
877
861
851
844
841
840
842
846
850
851
849
852
850
848
848
847
845
848
848
850
854
856
857
857
857
856
855
853
854
856
858
857
859
861
864
864
862
860
857
856
856
859
865
869
871
871
871
867
864
861
862
865
866
869
870
872
876
876
879
878
876
876
875
873
876
876
880
879
881
880
881
881
881
884
883
883
885
885
886
884
889
889
891
887
887
886
887
883
882
880
886
883
887
888
885
882
879
881
880
877
875
875
875
873
875
875
874
873
870
867
864
863
863
863
864
865
867
867
867
867
867
867
865
862
860
861
863
865
868
869
867
865
863
862
860
863
864
866
863
862
867
866
865
865
865
864
864
862
860
861
861
862
864
861
863
861
861
862
861
856
860
862
860
861
863
862
865
864
860
861
862
862
863
861
864
864
865
866
869
868
866
864
862
861
862
863
864
865
867
869
871
868
865
864
866
864
865
865
867
867
870
870
870
869
868
867
868
868
867
868
873
872
875
873
871
871
871
871
868
871
870
873
872
871
873
875
875
874
873
872
870
871
871
873
873
874
876
878
876
878
875
875
871
870
867
870
874
874
878
880
881
880
881
882
878
877
880
881
881
883
885
884
883
882
880
880
880
885
889
892
894
891
890
891
892
892
892
895
896
896
899
901
906
908
911
910
910
908
910
909
913
911
913
914
917
916
917
919
921
926
925
925
923
922
920
921
918
917
921
921
921
924
920
918
918
918
919
920
922
924
929
932
932
932
932
931
932
933
940
944
949
957
968
983
1002
1021
1043
1063
1081
1097
1108
1115
1121
1128
1135
1142
1140
1136
1125
1116
1101
1085
1069
1051
1036
1020
1003
990
980
969
963
958
960
959
961
961
965
968
969
967
969
969
969
967
966
966
967
966
971
970
975
973
977
974
972
971
974
973
976
977
979
981
982
984
982
983
981
979
980
982
983
984
988
988
990
989
989
988
989
989
986
986
987
987
991
992
994
995
994
994
994
995
996
995
995
997
1000
1003
1002
1003
1001
1004
1002
1003
1001
1005
1004
1005
1007
1006
1006
1009
1009
1011
1007
1005
1005
1004
1007
1007
1008
1008
1009
1009
1006
1006
1004
1001
999
997
995
994
996
995
994
996
994
990
990
988
988
987
986
987
987
987
989
989
988
989
987
986
984
985
986
985
986
984
988
988
987
987
987
985
982
981
982
981
985
985
988
988
989
986
983
979
977
978
978
979
980
980
980
980
980
979
977
978
976
977
978
979
980
980
981
982
980
982
981
981
980
984
983
984
982
985
988
987
991
990
990
990
986
987
988
988
990
992
994
994
995
995
992
992
989
989
989
991
993
994
995
997
996
995
993
994
992
993
992
994
994
996
998
997
997
999
998
995
996
995
994
994
993
995
999
1000
998
999
996
995
993
993
991
991
992
994
1000
1000
1002
1001
999
999
996
995
994
996
997
998
1001
1002
1002
1000
999
994
998
997
996
999
999
999
1000
1002
1003
1003
1000
999
998
997
997
999
1002
1001
1003
1003
1002
1000
1000
1004
1004
1008
1010
1009
1013
1013
1013
1014
1012
1010
1010
1008
1009
1008
1008
1008
1010
1011
1012
1014
1014
1012
1011
1009
1005
1004
1003
1003
1002
1001
999
1002
1001
1002
999
997
995
996
994
992
996
998
1000
998
1003
1003
1002
1003
1003
1005
1007
1013
1027
1043
1061
1083
1100
1123
1137
1147
1153
1160
1167
1177
1185
1190
1187
1177
1163
1149
1135
1117
1099
1081
1063
1048
1038
1030
1022
1015
1008
1001
1001
1001
1000
1001
1001
1001
1002
1001
1004
1003
1004
1004
1004
1004
1003
1002
1002
1001
1004
1004
1008
1008
1009
1009
1008
1004
1003
1004
1004
1004
1005
1009
1008
1009
1008
1009
1012
1012
1009
1007
1007
1010
1011
1012
1014
1016
1014
1014
1013
1011
1012
1011
1011
1012
1011
1014
1017
1016
1018
1018
1016
1016
1016
1012
1013
1016
1014
1018
1022
1020
1021
1021
1019
1017
1016
1016
1017
1017
1019
1018
1021
1017
1019
1019
1018
1017
1015
1017
1014
1017
1014
1014
1014
1016
1013
1014
1011
1010
1006
1003
1002
1003
1001
1001
1002
1001
1001
999
997
996
990
988
987
986
989
989
989
990
989
985
986
983
980
977
977
976
977
976
979
975
978
976
973
974
971
967
968
965
964
971
971
972
968
967
967
962
963
961
960
961
959
960
961
959
958
959
957
955
956
953
953
953
954
955
954
954
956
956
953
952
952
950
951
948
952
950
953
954
954
950
952
953
952
950
951
951
952
954
955
958
957
957
955
953
949
948
948
948
950
952
953
952
953
951
952
951
948
947
946
945
947
949
949
948
949
950
949
948
946
946
944
945
946
947
949
952
950
950
950
949
946
944
942
946
947
949
949
951
950
950
948
948
943
943
943
944
946
946
949
948
947
946
946
942
944
943
943
944
943
946
945
948
948
946
945
944
943
942
942
944
943
947
948
947
947
946
945
945
941
941
942
945
947
951
955
955
958
958
956
951
953
952
952
953
954
954
955
954
956
956
955
956
954
950
951
951
948
951
950
949
949
946
945
941
941
937
936
937
936
940
941
942
942
943
944
941
939
941
941
941
945
950
956
961
974
990
1010
1029
1047
1060
1074
1080
1088
1097
1108
1120
1124
1124
1114
1100
1084
1066
1049
1029
1014
999
987
979
972
965
956
950
946
941
940
943
944
947
948
949
949
946
947
946
946
946
945
946
945
947
948
946
951
950
949
949
948
946
947
947
950
952
951
954
953
953
954
951
950
949
950
950
952
953
955
955
956
955
954
953
951
951
950
951
951
952
956
957
957
956
955
955
954
954
953
955
956
956
959
959
960
961
960
960
957
958
957
957
959
963
963
963
963
962
961
958
957
954
955
954
955
957
955
955
954
951
949
946
946
945
943
940
940
937
938
940
938
937
933
930
926
925
922
923
924
922
923
923
923
920
918
915
913
910
911
912
912
913
912
913
909
909
908
906
901
900
899
900
901
903
904
906
905
903
900
898
898
896
895
895
896
898
897
896
897
895
892
890
888
887
887
889
890
891
894
895
895
896
895
891
891
891
888
890
891
891
896
896
896
896
895
894
892
892
891
893
893
896
897
897
896
897
893
891
893
892
892
893
893
894
895
897
896
898
897
894
894
895
891
894
895
896
897
897
897
896
896
896
893
894
892
893
892
895
896
897
899
897
895
894
892
893
894
893
893
896
898
897
898
896
895
894
891
891
893
891
892
893
893
894
895
893
892
893
892
892
890
892
893
892
894
896
895
898
897
896
894
893
891
894
894
895
895
897
898
898
896
893
892
893
894
894
900
901
905
907
911
910
908
906
903
903
904
904
904
905
905
906
906
905
904
903
904
901
901
901
900
898
899
899
898
895
891
888
887
885
883
884
887
887
889
890
890
888
887
888
886
889
887
889
891
892
898
904
915
927
942
962
979
994
1009
1018
1024
1029
1036
1047
1054
1055
1049
1036
1023
1005
988
970
952
939
927
921
915
909
899
895
888
886
884
884
883
884
892
895
890
890
889
888
888
887
886
888
888
891
893
897
895
894
893
891
891
892
890
890
893
893
894
896
896
896
894
894
894
896
893
893
894
895
897
898
898
899
897
892
893
896
895
895
897
898
896
900
897
897
897
896
895
897
897
896
896
899
899
902
903
903
901
900
900
901
901
902
903
905
906
905
907
906
906
904
902
900
898
899
902
901
899
902
898
899
895
896
891
889
887
884
887
883
883
881
880
879
877
872
872
870
868
867
867
867
867
868
866
864
861
861
860
858
855
856
854
853
854
856
855
854
854
852
851
849
848
846
850
851
849
853
851
851
848
847
846
843
842
841
842
843
845
845
844
843
842
843
843
840
839
840
842
844
848
845
847
846
846
843
841
844
841
842
845
847
847
850
850
849
848
843
842
845
843
844
847
848
850
853
853
852
852
850
849
849
846
847
849
851
852
852
852
853
853
851
849
849
846
846
849
852
852
855
856
854
854
852
849
850
849
850
849
854
855
856
854
853
853
849
848
850
850
849
851
851
851
850
854
855
854
851
852
851
850
849
851
853
854
854
856
852
854
851
853
852
853
851
850
851
854
854
856
854
855
851
853
852
852
852
853
853
854
857
857
859
856
855
855
856
856
857
858
865
864
868
868
866
867
865
865
864
863
864
866
867
866
869
868
868
865
865
865
864
864
861
860
863
862
865
861
858
855
851
852
852
851
851
853
855
854
855
856
853
853
855
855
857
856
858
859
863
869
877
885
901
918
938
960
979
995
1007
1017
1024
1031
1035
1038
1037
1030
1018
1008
993
975
958
943
929
915
908
898
887
879
873
865
860
859
859
861
862
865
868
867
867
865
865
864
863
862
862
865
865
868
869
871
870
870
867
867
868
867
868
866
869
869
871
871
871
873
871
868
869
866
869
870
872
872
872
874
874
873
872
871
869
868
871
869
873
872
878
876
877
878
872
874
873
873
873
877
876
879
880
882
882
881
878
880
879
878
877
879
881
883
883
883
884
883
881
880
877
878
878
879
876
879
878
877
877
872
868
869
867
865
862
864
863
863
862
858
856
854
850
846
845
846
844
843
844
841
843
843
841
839
836
834
832
832
831
833
834
835
837
835
834
833
830
828
827
827
827
829
830
830
832
832
830
829
830
827
826
827
825
827
828
829
833
832
832
830
829
826
826
827
827
827
827
830
832
830
827
829
824
825
828
827
825
829
828
831
832
832
832
832
830
829
829
827
824
827
831
833
834
834
834
834
831
831
829
827
828
827
831
832
835
834
836
832
833
833
834
831
832
833
834
833
836
837
834
835
835
833
834
835
835
835
837
839
839
840
840
839
838
837
836
835
835
835
837
839
840
841
841
840
837
836
832
832
832
831
833
836
837
836
837
838
835
834
834
835
836
837
838
840
841
840
841
841
840
839
840
839
838
839
837
840
843
841
844
845
843
843
845
844
847
850
851
855
855
853
855
855
854
854
853
853
852
855
854
853
855
854
853
856
854
854
853
852
850
850
852
853
853
853
851
849
843
843
843
842
843
843
847
847
852
851
851
853
851
852
851
853
857
864
871
884
902
920
940
959
972
984
993
996
998
1002
1013
1020
1024
1020
1010
994
977
957
941
923
907
894
883
877
873
867
862
858
855
851
853
854
854
854
856
860
861
861
860
862
861
860
860
858
858
860
862
862
864
866
866
865
865
864
865
863
862
862
866
867
869
870
870
869
869
870
866
869
870
870
871
872
874
875
875
873
871
873
869
869
869
869
870
871
873
877
878
878
876
876
875
874
875
873
878
878
881
882
878
883
881
878
879
876
879
877
877
881
881
882
882
880
878
879
878
875
874
873
874
875
875
877
875
872
869
863
863
862
858
858
856
855
857
855
853
853
848
846
844
842
840
840
840
841
840
842
840
840
839
836
833
834
832
833
834
834
836
837
834
834
832
831
828
827
827
828
830
831
832
832
831
831
828
826
821
826
825
826
826
828
828
829
829
826
828
827
824
822
823
825
827
829
829
829
828
829
826
827
826
826
826
826
828
826
830
831
832
832
831
829
827
827
828
828
829
830
832
834
833
831
830
825
827
826
826
827
828
830
830
831
831
832
831
831
830
829
829
831
831
831
834
835
835
835
835
835
833
833
832
834
832
834
835
835
835
836
836
833
833
828
830
832
834
835
834
837
836
835
833
834
831
831
832
833
834
835
835
835
834
834
831
833
832
832
833
834
835
836
837
838
838
837
838
833
834
833
833
831
835
837
840
838
839
839
844
847
847
846
845
846
847
847
849
853
852
853
853
852
850
848
849
848
849
851
854
855
855
854
852
848
845
844
843
844
842
843
843
842
841
843
842
844
844
843
846
844
843
847
847
850
851
854
857
861
868
880
897
919
944
970
989
1008
1018
1024
1026
1030
1031
1034
1026
1015
1004
990
973
957
939
922
906
892
882
873
866
860
858
856
854
856
856
857
857
856
857
854
852
855
858
857
860
861
862
864
862
861
858
857
858
857
859
864
865
867
866
866
868
866
866
865
865
866
866
866
867
868
868
870
872
871
868
868
870
868
871
872
872
875
874
875
874
873
872
873
872
873
874
875
880
882
882
883
880
880
877
881
883
885
886
888
888
888
888
887
888
886
883
882
879
880
881
881
884
882
884
880
880
874
869
867
865
866
866
866
865
864
863
861
859
857
854
850
850
849
849
845
850
850
848
846
843
843
842
840
836
840
842
843
844
845
842
840
837
838
834
836
835
834
836
837
837
839
839
836
838
836
834
833
833
834
834
836
836
837
834
836
834
834
831
831
830
832
831
833
835
836
834
834
833
832
833
831
831
831
832
832
833
833
834
833
833
833
830
830
830
830
833
832
834
835
836
837
835
833
833
833
833
835
835
835
836
839
839
838
838
834
834
833
836
835
834
838
837
838
837
838
837
838
837
835
837
836
837
839
841
841
838
841
837
841
839
839
837
839
838
841
843
844
842
843
840
842
841
838
836
838
841
841
842
843
843
845
844
843
842
839
837
842
840
843
843
847
845
845
845
844
842
838
840
842
846
847
849
849
851
856
855
854
853
852
851
853
853
856
858
857
859
859
859
858
856
855
855
856
858
859
863
865
862
862
858
856
854
852
850
851
850
851
852
853
855
852
851
850
847
846
846
846
849
851
856
856
858
859
858
858
859
862
868
879
893
914
942
965
991
1012
1027
1034
1041
1044
1050
1053
1051
1041
1029
1014
997
977
954
932
909
893
883
877
868
868
864
864
862
860
862
862
862
860
860
861
860
863
863
863
866
865
864
862
863
861
863
864
865
866
868
870
869
869
867
865
865
865
865
865
864
867
870
873
873
872
873
869
870
868
868
867
868
869
871
874
873
875
874
873
871
869
869
871
871
873
875
877
877
878
876
876
875
873
876
875
878
877
881
882
883
880
883
881
879
878
876
878
879
881
881
879
879
881
879
878
875
872
870
868
870
870
871
870
869
869
866
863
860
858
856
853
857
855
855
855
856
852
852
850
847
847
848
846
846
846
846
847
846
846
844
844
842
840
842
839
841
842
843
845
845
845
841
842
839
839
839
838
839
839
841
840
840
838
837
837
838
836
835
835
837
836
839
841
838
835
835
835
835
833
833
836
838
837
838
839
838
841
841
841
840
839
838
839
839
840
841
844
842
842
841
840
841
839
839
838
839
841
844
847
846
843
843
843
842
840
839
842
842
845
841
845
846
849
848
845
844
846
843
843
844
846
849
846
848
848
846
846
844
845
845
845
847
847
849
850
849
851
849
846
845
845
846
845
847
847
849
849
850
848
848
848
846
848
848
847
849
848
850
853
853
853
853
852
852
851
849
851
852
853
855
856
858
856
858
857
857
859
863
865
864
867
866
868
868
866
866
865
863
863
864
864
866
868
870
872
870
872
870
868
865
866
864
861
860
857
857
858
860
859
857
854
856
856
859
858
859
861
864
864
863
864
864
866
865
867
872
881
898
923
948
973
992
1009
1021
1027
1032
1040
1048
1058
1064
1066
1059
1049
1031
1015
999
980
960
941
921
904
894
883
879
877
873
870
872
870
868
866
863
865
868
869
868
869
871
872
871
869
869
868
869
871
871
871
874
877
875
874
873
871
870
869
868
869
872
872
875
877
877
877
875
875
874
872
872
874
874
872
878
880
880
876
878
879
877
875
874
876
876
878
879
881
880
882
881
880
878
880
880
879
881
883
884
886
888
888
887
887
885
885
883
883
884
885
886
886
885
886
888
883
880
879
877
878
879
879
881
881
880
879
873
870
867
865
865
863
860
862
864
864
862
859
858
856
854
854
853
852
853
853
852
852
852
851
847
847
847
846
845
845
846
847
848
849
845
846
845
843
840
838
839
839
841
839
840
839
837
838
837
834
829
830
829
830
832
833
833
835
832
831
831
830
831
830
826
826
830
829
831
833
833
834
833
833
832
832
828
830
831
832
834
838
837
836
835
835
833
831
831
830
833
836
838
840
840
840
836
834
832
833
833
836
836
839
839
842
840
839
838
839
837
837
836
835
836
838
837
841
839
840
839
840
839
840
837
836
837
839
839
843
844
841
842
841
839
838
837
839
839
841
841
844
844
843
840
840
837
839
836
839
837
838
839
841
840
842
841
841
839
837
838
839
840
839
840
844
845
844
845
844
844
840
840
841
844
847
853
855
856
859
858
854
853
851
850
850
853
854
855
859
857
856
856
855
853
855
853
853
854
853
854
851
850
848
845
842
840
841
838
836
839
839
842
846
845
845
843
844
843
845
844
846
850
858
871
891
913
935
957
972
986
992
1001
1007
1017
1029
1037
1040
1034
1024
1007
990
970
947
925
907
897
884
878
871
867
862
858
856
851
849
850
852
852
852
853
856
854
857
857
852
853
853
852
852
854
855
854
857
857
858
861
859
858
858
856
856
859
859
859
861
863
863
864
863
860
863
862
860
859
860
864
865
863
866
863
861
860
860
858
863
865
864
867
869
868
867
869
868
869
868
867
866
868
871
873
876
878
877
876
875
873
872
870
869
871
872
873
871
872
876
872
869
869
867
866
865
864
865
862
862
861
859
855
854
851
848
847
844
844
844
843
843
844
842
840
837
836
832
831
828
827
828
830
831
831
829
830
827
825
822
822
819
821
821
822
825
824
821
822
819
816
814
812
810
811
812
811
811
812
810
811
808
805
801
803
803
805
805
809
810
808
809
808
807
805
805
805
805
804
806
809
807
808
807
806
805
803
799
801
803
804
803
805
807
810
808
809
807
805
803
803
801
804
804
807
810
809
812
807
806
805
804
803
802
806
808
810
811
810
809
808
809
811
809
808
806
810
810
811
811
808
809
813
811
807
809
807
809
807
810
811
815
816
814
814
813
810
808
808
806
809
812
814
815
814
812
814
814
815
812
812
812
811
814
815
816
816
816
815
815
812
812
812
814
811
811
814
816
817
816
814
815
814
814
814
814
815
817
819
822
826
826
828
829
829
829
828
828
828
831
832
834
834
832
830
832
828
828
826
825
826
830
833
831
834
834
829
826
826
823
821
820
819
820
822
825
825
824
826
824
824
823
821
823
825
826
827
832
832
835
836
840
851
865
884
907
929
950
965
978
984
987
993
997
1000
999
991
982
966
954
937
922
906
890
879
867
856
849
841
835
833
831
833
835
835
838
837
834
834
832
832
830
833
836
837
841
839
841
842
841
839
839
837
838
839
840
842
844
845
844
844
843
843
841
841
842
845
847
847
849
849
851
850
849
847
847
845
847
846
849
851
852
855
852
854
853
853
851
851
850
851
850
852
855
857
858
858
862
857
858
856
856
857
858
862
860
863
864
861
860
857
856
855
856
856
857
859
858
860
858
857
855
851
846
845
845
842
843
840
839
840
837
835
831
826
825
822
825
823
824
826
827
825
825
821
820
818
816
815
815
815
816
815
816
816
816
814
812
813
811
807
808
808
811
810
811
812
810
810
808
805
803
803
804
806
805
807
808
805
807
808
805
803
800
802
802
801
804
804
808
806
805
805
805
805
803
802
803
803
806
806
811
808
807
807
806
805
805
803
805
804
807
810
809
811
812
812
810
808
809
806
807
809
810
809
812
814
811
810
810
808
807
807
805
807
813
813
813
816
815
814
813
814
812
812
809
810
810
815
817
818
818
818
815
816
813
812
813
814
816
813
817
817
821
819
816
815
812
813
812
814
816
816
816
817
818
819
817
813
816
815
816
817
818
818
822
823
821
822
819
819
818
817
817
819
820
819
821
824
827
829
829
830
828
830
829
829
832
833
834
834
837
837
838
834
834
833
833
831
834
834
838
840
838
836
835
832
828
826
826
826
825
826
827
829
828
828
827
826
824
824
822
823
824
830
833
835
836
838
840
846
850
861
879
903
926
953
976
995
1004
1012
1015
1019
1020
1016
1008
998
984
972
956
944
927
909
894
881
868
857
850
843
837
836
835
837
840
838
841
839
839
840
838
839
840
841
844
847
844
845
847
842
843
841
842
844
844
848
848
850
850
850
849
850
849
847
848
848
847
849
853
855
855
856
856
855
855
853
851
852
857
857
861
860
861
860
859
859
859
858
858
859
860
862
863
868
864
864
862
862
858
861
863
867
867
869
871
873
873
873
872
870
866
865
866
865
864
865
865
866
867
867
863
863
860
858
853
857
852
852
854
853
849
849
844
840
837
836
834
833
834
836
833
834
835
832
831
828
826
825
826
826
829
830
830
828
828
829
827
826
824
821
823
822
824
823
823
825
824
824
822
821
814
813
812
813
816
819
817
818
819
817
816
815
812
813
812
814
815
818
820
819
817
813
815
814
810
812
811
813
813
818
818
819
818
820
818
814
812
812
812
812
814
815
818
819
820
818
818
818
818
818
815
818
819
822
822
822
821
818
818
819
820
816
817
820
821
822
824
826
824
822
823
822
822
822
820
821
823
824
826
828
827
826
826
825
823
821
824
822
823
826
826
828
829
829
826
824
824
821
822
825
824
826
827
827
827
828
828
826
825
826
826
826
827
829
830
828
830
830
831
830
829
825
826
826
829
831
834
837
838
840
837
836
835
835
837
836
840
840
842
844
842
844
843
842
841
841
841
842
843
843
844
845
844
845
844
842
840
839
836
832
832
836
838
840
839
841
838
837
837
835
838
839
840
843
845
845
847
850
855
861
874
891
916
940
966
994
1015
1030
1038
1047
1050
1048
1043
1031
1018
1003
989
975
959
943
927
908
893
879
866
857
853
850
851
848
851
855
854
856
857
854
853
854
854
856
856
858
860
861
864
865
864
863
860
859
858
859
862
863
866
870
870
868
868
867
870
868
869
869
870
871
873
876
874
877
874
875
873
874
873
875
877
876
878
881
881
880
880
880
879
878
879
877
883
884
885
885
886
886
885
884
884
884
884
885
887
887
890
888
890
889
888
887
887
883
883
885
884
883
886
887
887
886
883
877
875
876
873
873
871
871
872
869
869
866
865
860
857
855
853
851
851
850
853
855
852
854
849
848
845
843
846
845
845
846
847
848
847
847
845
845
844
842
839
842
843
842
842
845
843
843
840
841
837
837
839
838
838
837
839
840
839
838
837
836
833
833
833
832
832
832
834
835
833
835
835
835
834
833
833
833
836
837
836
837
838
839
837
835
835
834
832
834
834
835
837
839
836
836
836
836
834
835
833
834
834
837
837
838
839
838
838
835
838
832
836
835
838
837
841
842
841
842
839
836
835
836
836
836
837
839
841
842
842
842
841
838
837
837
836
836
838
840
841
845
842
840
841
838
839
836
834
835
838
839
839
840
842
843
842
841
840
835
836
837
839
840
842
842
843
841
841
840
838
837
835
837
839
839
839
842
842
841
842
839
838
838
835
838
839
840
843
846
847
848
850
852
852
849
846
845
847
850
852
855
852
850
851
850
852
850
850
850
852
855
854
854
854
852
850
847
846
844
842
841
839
842
841
845
843
845
843
846
842
843
842
843
844
846
846
850
850
854
855
860
866
878
896
917
940
963
986
1003
1013
1022
1024
1030
1035
1040
1040
1033
1021
1010
992
974
958
939
918
902
887
875
866
858
854
850
851
853
854
852
855
851
850
849
848
851
853
854
852
857
858
856
856
857
855
854
851
850
856
857
859
861
858
859
859
861
861
860
859
860
862
863
865
867
866
864
864
862
863
862
860
861
861
863
865
866
867
870
870
868
864
865
867
867
869
870
871
873
874
874
873
874
872
871
873
873
874
874
877
876
878
877
876
875
874
873
872
871
872
872
873
874
871
870
868
867
866
864
864
861
861
860
859
860
857
857
855
848
848
845
844
844
844
842
845
845
845
844
841
839
839
837
837
836
837
837
839
838
838
838
836
836
833
833
831
832
832
832
834
834
833
830
829
827
825
824
822
822
823
822
824
826
824
823
818
817
814
814
814
815
815
816
818
822
820
819
817
815
814
814
811
814
815
813
816
820
819
818
817
815
812
813
812
813
815
819
815
818
819
818
818
817
817
814
815
815
818
819
819
820
820
822
822
820
819
819
818
817
822
822
822
824
823
822
821
821
819
819
818
820
818
821
822
826
825
823
822
822
820
820
820
820
821
820
825
821
824
824
822
825
822
825
824
824
824
825
826
827
825
824
825
824
826
826
824
824
825
826
827
830
830
831
830
829
828
826
827
827
829
830
829
832
832
831
833
833
834
834
834
835
839
842
844
845
842
842
840
841
842
841
840
840
841
842
843
844
842
844
845
843
842
843
839
834
837
837
838
839
839
835
837
835
835
835
831
832
833
833
834
837
838
838
838
840
841
841
844
849
859
870
888
912
935
960
982
998
1010
1016
1020
1024
1031
1032
1031
1022
1007
992
974
958
942
923
907
892
881
871
867
862
857
851
849
846
844
847
846
849
850
850
854
857
854
853
853
852
853
852
853
855
856
855
857
859
861
860
861
861
861
860
860
860
861
862
867
867
869
870
870
864
861
862
860
866
866
868
870
872
874
873
875
871
871
870
871
871
874
874
876
878
878
879
876
876
877
875
876
876
879
881
882
886
886
886
886
886
885
884
883
883
886
885
885
886
886
885
884
881
880
878
877
876
873
874
873
874
871
872
871
866
863
860
856
853
857
857
857
857
855
854
855
850
849
848
848
847
845
845
848
849
849
850
848
847
846
844
841
842
844
844
846
847
847
845
845
843
841
836
838
839
839
839
842
842
842
842
842
840
835
831
835
832
833
833
835
833
835
835
835
835
832
830
831
830
829
833
834
836
836
836
834
834
832
831
829
829
831
834
834
835
835
836
835
834
833
831
831
832
833
835
835
839
836
839
838
839
837
834
833
834
835
837
837
838
839
841
841
838
838
837
836
838
839
840
840
841
842
841
841
839
841
838
837
837
839
840
844
844
846
844
843
843
841
841
840
839
840
841
846
846
847
847
849
848
846
845
844
843
846
845
847
849
849
849
849
847
847
844
844
844
845
846
851
851
852
853
853
854
855
854
857
857
859
860
861
860
863
864
863
861
859
859
859
859
862
863
865
866
868
869
867
866
864
862
860
859
858
858
858
859
857
857
855
854
854
852
852
852
854
854
857
860
862
860
862
863
866
865
871
878
886
903
923
947
970
992
1010
1022
1029
1034
1039
1045
1049
1048
1041
1030
1016
999
981
960
939
920
904
893
884
878
874
870
867
869
867
867
867
864
863
863
864
866
868
868
869
869
868
869
867
867
865
866
867
868
869
871
871
873
874
873
873
871
869
869
873
874
873
876
876
879
879
878
877
874
874
876
876
878
877
877
880
877
879
878
878
875
877
877
877
880
883
884
887
885
888
885
885
883
882
883
884
887
890
888
893
893
892
889
888
885
888
885
885
887
888
888
890
890
890
883
883
883
881
877
879
879
879
879
879
876
873
869
866
864
861
862
860
859
857
858
859
858
858
855
852
849
848
848
849
848
850
851
851
850
849
845
843
844
844
844
844
841
845
844
846
845
844
843
840
838
838
836
836
839
837
837
839
838
838
836
833
830
830
830
832
830
831
832
833
833
833
831
830
828
825
825
827
828
831
830
830
833
831
831
829
827
826
827
827
829
826
829
830
830
829
828
826
824
825
823
824
826
826
827
832
831
828
830
831
829
826
825
825
827
830
831
833
829
830
829
829
830
828
827
828
831
831
830
831
831
831
828
828
828
827
828
829
831
831
833
832
834
833
828
828
827
829
827
831
832
831
833
835
834
832
829
829
825
825
828
826
833
830
834
832
830
833
831
832
830
828
829
830
832
833
835
837
835
835
834
833
831
831
831
832
831
831
832
836
836
836
836
837
838
837
836
840
842
845
847
848
845
844
843
840
842
843
842
844
847
846
848
849
848
847
847
847
848
848
849
846
845
845
846
847
845
845
842
839
836
837
836
836
836
839
840
842
839
841
841
840
840
840
841
845
848
856
867
882
899
918
939
956
973
983
987
997
1002
1009
1016
1023
1023
1015
1005
989
969
952
937
918
906
893
884
876
869
861
852
847
843
843
843
846
847
848
850
850
851
852
845
849
848
849
848
848
850
848
852
854
852
853
853
850
853
852
850
852
854
857
856
859
860
860
857
858
856
856
856
859
860
859
862
862
865
863
862
861
861
858
860
861
864
864
865
867
867
869
868
865
865
866
867
865
869
871
874
876
876
877
876
874
873
871
871
872
874
874
877
880
877
877
876
873
871
872
867
870
868
868
866
866
867
868
866
864
860
856
855
853
853
852
851
849
850
847
843
844
841
838
838
833
834
837
839
839
839
838
837
833
831
830
831
829
832
832
835
835
833
833
833
831
828
829
828
827
829
831
829
827
829
828
826
825
821
820
819
821
818
821
821
824
825
824
823
821
820
819
818
818
818
821
821
821
824
822
820
820
818
816
816
815
815
819
822
823
824
821
822
821
821
819
818
817
819
820
822
824
824
824
823
822
821
819
819
817
817
821
820
825
824
826
824
821
820
820
821
823
822
824
827
826
826
827
824
822
821
820
822
823
826
826
828
828
830
830
828
828
824
823
823
826
826
825
827
830
830
826
829
828
825
823
824
823
823
825
828
830
832
827
829
828
824
825
828
830
828
829
832
833
834
833
831
831
830
829
828
829
830
830
831
835
839
841
840
844
841
840
841
842
843
843
846
849
849
849
847
847
846
845
844
842
843
846
849
849
851
848
845
843
843
840
839
837
838
839
840
840
839
841
839
838
835
834
834
834
836
839
842
845
844
845
848
848
852
857
867
885
912
935
962
981
996
1004
1005
1009
1015
1019
1018
1015
1006
994
982
965
948
929
912
898
885
875
866
861
855
851
848
849
849
853
851
853
852
850
850
850
851
852
855
854
853
854
854
853
852
853
855
856
859
859
861
862
860
858
862
860
858
857
858
860
860
862
862
865
868
867
867
864
863
864
862
865
867
866
868
870
867
868
869
869
869
868
867
872
871
874
877
877
878
879
877
876
876
877
876
878
881
881
884
885
885
886
884
883
884
884
881
881
879
883
884
885
885
886
883
882
878
875
874
877
876
877
878
879
874
872
869
867
864
864
860
861
859
861
857
860
860
859
856
855
852
848
847
849
850
851
852
850
850
851
850
848
847
846
844
845
844
844
846
847
845
846
844
843
840
838
838
836
841
841
844
842
846
844
841
837
836
836
836
837
838
837
838
837
837
837
836
833
834
834
831
831
834
834
836
837
837
837
835
834
830
832
831
830
834
835
835
838
836
838
838
837
837
834
836
835
834
838
840
842
841
841
842
841
839
839
836
837
840
838
842
842
845
846
843
842
844
844
840
840
840
845
845
847
843
844
846
844
844
843
842
841
844
845
847
847
847
851
851
850
846
846
844
844
846
848
850
849
849
850
850
847
847
848
847
846
847
850
851
854
852
851
853
847
847
845
844
846
849
853
850
855
854
852
852
851
850
849
850
850
853
855
857
864
863
864
865
864
862
860
860
861
863
865
864
866
866
867
865
864
862
862
863
864
866
868
868
869
864
864
862
860
858
854
853
850
850
855
858
861
858
860
860
855
856
856
853
855
858
860
859
867
869
874
882
895
912
935
958
986
1007
1026
1038
1047
1053
1056
1057
1052
1042
1026
1012
996
979
962
945
931
915
901
888
879
871
867
862
861
860
864
864
865
866
868
865
866
865
863
862
862
864
865
869
870
870
867
867
868
867
867
868
867
868
869
870
871
874
870
872
871
869
873
872
872
874
875
876
878
878
877
876
876
876
874
872
873
877
878
880
882
884
882
881
879
882
882
880
880
884
885
885
888
889
886
887
885
886
886
884
884
888
891
890
891
888
889
888
886
887
887
883
885
885
884
885
886
884
883
883
879
877
875
872
870
868
869
867
865
865
865
862
860
856
854
852
851
853
853
853
855
853
851
851
849
847
844
842
844
845
847
849
851
847
850
850
846
847
845
843
843
843
844
844
844
844
844
843
841
839
838
839
839
839
839
837
840
839
838
838
838
837
834
833
831
832
832
836
836
837
838
835
833
832
831
832
829
832
832
833
834
835
834
835
834
830
833
829
832
830
831
835
836
836
836
836
833
832
833
831
832
833
833
835
836
835
835
837
836
835
833
833
835
833
836
837
841
839
838
837
838
836
837
835
836
835
839
840
843
842
841
839
841
838
838
837
836
837
839
842
844
840
843
842
840
839
839
836
838
838
839
841
843
843
843
842
841
840
840
838
838
837
839
841
843
842
842
842
841
840
838
837
839
838
842
841
844
844
843
842
842
841
839
839
839
841
843
844
846
850
853
855
853
853
850
849
849
850
851
854
857
857
857
856
856
853
853
852
849
852
854
857
858
856
857
853
851
850
847
844
840
844
843
845
847
848
847
847
847
843
845
845
845
845
847
849
852
853
854
859
862
864
875
892
915
942
968
992
1011
1026
1032
1035
1042
1042
1034
1019
1002
986
968
949
934
918
900
890
878
867
861
853
850
848
851
852
856
857
856
855
854
856
852
853
852
854
856
859
862
863
860
862
861
858
858
857
858
858
859
860
863
863
864
863
863
860
861
859
857
860
863
867
870
870
870
867
868
866
867
864
864
866
870
869
872
871
872
872
874
870
870
871
871
871
873
875
877
877
879
877
877
878
878
877
879
879
881
881
883
881
881
879
879
877
876
875
872
873
875
876
877
877
877
873
868
867
865
861
862
861
860
860
857
857
855
855
851
849
846
846
842
842
843
847
846
848
845
845
844
844
841
840
842
840
840
841
842
843
843
843
841
839
836
835
835
835
835
837
839
839
837
835
831
832
832
830
830
829
832
834
835
832
832
829
829
827
825
823
823
824
825
826
827
828
826
827
827
826
824
822
823
824
824
824
825
830
825
826
823
824
821
820
819
821
824
828
828
830
827
828
826
825
825
827
827
827
828
829
830
832
831
829
830
828
830
827
828
827
829
830
832
832
834
832
831
829
826
825
827
828
829
832
833
835
835
833
831
831
830
829
830
831
831
832
833
832
831
832
830
833
831
829
827
827
829
832
834
834
833
832
829
828
828
828
829
830
831
834
836
836
835
836
833
830
829
826
827
832
833
834
835
836
837
833
830
831
831
827
830
830
832
838
840
842
843
845
840
842
841
839
841
843
845
848
849
849
850
847
846
844
844
844
843
846
846
848
849
845
846
845
844
842
841
838
838
836
837
841
840
841
840
840
837
837
836
837
837
839
842
843
847
849
848
854
860
867
879
895
918
940
962
982
997
1006
1010
1016
1020
1022
1017
1009
992
975
960
943
927
911
895
884
873
863
854
846
843
842
843
845
847
849
848
850
848
848
848
847
846
849
849
850
851
852
852
852
853
849
847
848
849
849
852
852
854
854
855
855
855
854
849
850
854
853
854
857
859
862
859
860
858
857
857
856
856
856
859
860
861
863
862
863
861
858
858
860
862
864
865
867
865
867
869
868
868
867
868
867
869
871
871
874
875
879
876
878
875
874
874
869
867
867
869
871
870
873
871
870
868
866
865
862
862
859
861
860
859
858
855
853
850
850
848
843
842
841
842
842
842
842
840
840
841
840
838
836
837
837
838
837
840
840
839
839
838
837
834
835
832
834
835
834
834
834
834
836
834
832
832
828
827
827
828
828
830
830
825
824
824
822
822
823
823
825
825
827
830
828
829
828
825
825
823
823
824
825
823
825
827
829
829
828
828
827
826
827
828
827
829
831
831
834
835
832
832
830
832
831
830
830
832
832
836
837
837
834
833
832
831
830
833
832
833
835
838
840
838
839
835
834
835
833
835
837
834
838
841
843
842
842
838
839
839
837
837
839
838
838
839
839
842
844
841
840
838
838
839
841
841
845
846
846
846
847
847
846
844
842
844
842
845
848
848
849
850
847
848
846
846
844
845
845
848
850
850
854
855
854
851
850
850
848
847
849
850
851
850
852
855
855
856
857
856
856
858
861
859
861
865
864
865
864
864
864
861
860
860
861
862
863
867
869
868
869
866
865
862
862
860
856
856
859
857
857
854
853
852
851
847
848
850
851
853
854
856
858
861
858
857
859
856
858
861
868
872
883
896
915
942
964
990
1013
1026
1037
1044
1051
1060
1063
1058
1048
1035
1021
1005
987
971
948
928
908
894
883
875
871
866
864
860
859
860
860
858
860
860
860
862
864
862
861
861
860
859
860
861
864
864
865
867
869
867
867
866
865
866
864
862
866
867
869
869
871
870
870
870
865
864
865
866
868
870
870
871
874
875
876
873
871
870
866
869
870
873
873
878
875
877
877
878
875
875
874
874
874
875
875
880
880
880
880
880
880
877
877
877
876
879
880
880
881
882
881
879
881
875
873
873
873
871
871
870
869
869
868
866
862
857
858
856
855
856
856
855
856
853
849
848
844
843
843
842
842
839
840
843
845
845
844
844
842
840
839
840
840
839
843
844
844
845
845
840
841
841
838
838
838
839
839
840
840
840
840
838
838
834
833
833
834
836
835
837
837
836
836
833
828
829
831
830
830
831
831
833
834
833
833
832
831
830
826
829
826
829
830
834
835
836
837
833
832
832
829
830
830
832
834
836
835
837
837
836
836
833
831
833
834
834
834
840
841
838
840
839
837
833
831
834
834
836
837
836
838
837
839
838
838
837
836
837
837
838
839
841
842
843
841
842
840
839
840
839
840
840
842
842
844
843
843
841
841
843
841
842
843
844
844
844
846
845
844
844
845
842
842
842
841
842
845
847
848
847
847
846
847
847
845
846
846
848
845
848
849
851
849
848
850
846
847
846
845
847
847
851
852
852
851
850
851
850
851
852
851
857
858
860
861
863
862
860
861
860
860
858
856
859
862
858
861
862
863
862
860
860
858
858
856
858
858
861
860
858
856
849
848
846
846
844
848
849
848
850
852
851
852
852
850
850
848
851
851
853
855
859
866
872
889
908
932
960
984
1004
1021
1033
1046
1055
1061
1054
1041
1023
1003
987
966
946
926
908
895
884
875
868
864
859
855
851
852
852
852
856
857
858
860
859
858
856
858
857
855
854
855
857
857
858
859
860
862
861
860
859
858
857
859
860
858
859
862
864
863
862
861
861
860
861
861
864
864
865
866
865
866
864
864
862
861
862
862
863
865
867
868
868
871
871
868
868
866
869
870
871
873
875
876
875
877
875
875
872
872
869
871
871
874
875
874
873
876
874
871
869
869
868
868
868
867
869
866
866
867
860
859
857
854
850
853
851
852
851
852
849
846
845
845
843
841
842
840
841
843
842
841
841
842
839
839
838
837
834
834
834
834
837
835
834
833
833
830
828
829
827
824
824
827
829
829
826
824
825
824
819
821
817
815
816
816
816
818
817
817
817
816
815
814
813
813
813
814
816
816
817
816
817
814
813
814
811
812
812
815
812
818
816
814
816
814
812
812
810
812
815
815
817
819
818
818
817
815
815
816
813
811
817
815
818
819
819
819
820
819
815
815
816
816
816
817
820
821
820
820
819
819
819
818
818
816
818
819
822
823
821
820
820
821
821
818
819
822
821
824
825
827
826
825
823
821
821
821
819
819
820
821
823
826
826
824
825
825
825
826
823
826
827
829
829
832
831
831
831
830
826
825
828
825
828
830
831
834
834
834
833
831
828
825
828
829
831
833
837
839
839
839
837
836
837
840
842
845
843
845
844
845
845
846
846
846
846
844
843
844
844
848
849
853
855
855
852
853
852
851
847
847
846
845
846
844
843
841
840
840
840
838
840
839
840
842
843
846
845
845
847
845
847
848
851
854
862
874
892
914
938
961
986
1002
1016
1023
1028
1035
1040
1042
1039
1031
1020
1001
985
967
948
929
910
895
883
871
863
860
857
851
851
849
849
850
850
850
852
853
852
855
854
854
856
855
854
851
853
853
853
854
855
857
860
861
856
854
854
854
856
856
858
861
859
861
864
863
860
863
860
860
859
858
857
859
863
864
863
866
865
864
862
861
862
863
863
866
867
870
870
870
871
869
870
868
867
867
869
871
873
875
874
873
874
871
874
870
868
868
869
868
870
872
872
873
870
867
864
863
861
862
863
861
862
863
860
858
857
849
848
845
842
843
842
845
844
844
843
842
842
840
839
837
838
837
839
840
839
841
841
840
841
839
833
832
828
827
832
836
835
838
836
836
835
833
829
828
827
826
826
826
831
833
831
832
829
827
826
824
822
822
822
824
827
829
828
827
827
822
823
822
821
821
821
822
822
827
827
824
822
820
821
820
821
821
824
824
824
824
827
825
825
826
823
821
821
824
826
829
830
831
831
831
830
830
827
825
826
827
827
832
833
832
834
831
833
830
829
830
830
831
830
830
832
835
835
834
832
833
831
830
827
826
825
827
831
834
833
831
834
831
831
830
827
826
828
831
831
833
833
831
832
831
832
831
828
830
832
834
832
834
836
834
832
830
828
831
831
829
830
833
833
835
836
832
831
832
834
834
835
833
834
837
837
838
838
839
838
837
836
835
832
835
834
837
838
840
840
842
843
843
842
840
844
843
847
851
853
857
857
854
851
851
853
852
850
851
854
855
857
859
860
861
859
860
858
857
854
857
855
854
857
856
856
853
851
845
844
844
843
843
845
846
845
847
849
851
851
850
849
849
850
851
854
854
859
868
876
892
914
936
958
978
995
1007
1017
1024
1031
1040
1049
1056
1052
1047
1032
1015
996
984
963
945
930
913
898
884
876
868
863
855
855
856
857
860
861
862
864
864
863
861
861
858
858
857
858
860
862
861
863
863
863
863
861
859
860
860
863
863
866
867
867
865
863
864
865
864
865
865
863
867
867
871
870
869
870
867
866
867
865
865
867
868
870
871
872
873
873
872
872
868
867
867
871
871
875
875
877
874
876
876
876
876
876
877
877
877
879
882
881
881
881
881
878
879
877
877
878
880
880
878
881
878
878
875
874
873
868
869
869
869
870
871
870
867
865
864
858
856
853
852
853
853
853
853
853
852
850
848
846
843
841
841
843
843
839
843
843
841
839
838
839
835
834
833
833
832
832
834
835
833
832
831
829
828
826
827
827
830
832
832
830
831
829
827
826
823
819
820
822
823
824
827
828
824
824
825
825
825
824
826
825
827
829
828
828
826
828
826
825
825
826
826
827
829
831
831
832
833
833
831
830
829
826
828
831
834
834
833
836
834
835
833
833
833
831
832
833
833
835
836
838
839
838
836
837
835
834
834
834
834
835
837
839
841
842
841
841
839
839
838
838
839
843
842
843
845
845
842
843
839
841
841
841
841
842
844
844
846
845
842
841
843
842
842
843
845
847
846
847
847
847
846
844
842
841
843
843
843
844
846
849
846
846
845
845
843
844
842
846
846
850
851
853
853
852
851
849
849
847
850
852
854
858
861
863
865
864
863
863
860
858
859
859
864
863
864
866
866
866
864
864
862
862
864
866
868
868
868
866
867
865
862
860
857
855
853
851
852
853
856
856
855
856
855
856
856
855
855
856
857
860
864
868
872
879
888
902
923
944
972
997
1016
1032
1039
1047
1050
1055
1057
1053
1046
1031
1018
1002
989
974
957
941
923
905
893
884
873
868
866
865
865
867
867
870
869
870
867
864
864
862
862
864
866
867
870
871
871
869
868
865
866
866
867
868
870
872
875
875
874
874
876
875
874
876
875
876
875
878
877
878
879
878
878
879
878
876
877
877
879
882
883
883
883
884
882
878
877
882
883
883
885
886
887
890
887
890
888
888
884
885
886
886
890
889
893
895
893
893
894
891
892
890
891
891
894
890
889
889
891
890
889
888
885
883
881
881
881
880
882
881
879
876
872
870
866
862
862
861
862
862
862
862
861
862
859
859
856
855
853
857
857
857
860
857
856
855
853
854
852
851
849
850
852
852
854
854
853
855
851
852
849
848
847
847
848
848
851
850
848
847
844
841
841
841
841
840
839
842
844
845
842
846
843
842
842
841
840
838
840
842
843
845
845
844
843
844
841
840
842
843
845
845
847
849
847
846
846
846
844
844
844
844
844
844
847
847
848
848
847
845
845
844
845
845
847
847
848
847
849
849
847
846
845
845
844
845
846
850
850
852
853
851
851
848
849
848
848
846
849
850
853
853
853
853
854
850
850
849
850
850
850
851
856
857
857
856
856
854
854
854
854
854
853
855
859
857
858
858
856
855
854
851
851
853
857
858
858
860
861
863
860
859
859
858
858
859
859
863
865
865
863
861
861
860
858
860
860
859
859
861
864
868
867
869
868
869
869
870
869
871
871
877
876
878
878
875
877
875
874
873
873
875
877
878
882
884
884
881
879
878
874
872
870
868
869
870
870
871
871
871
869
869
867
866
868
869
872
873
876
877
880
880
881
887
897
912
934
957
984
1006
1025
1038
1050
1055
1063
1071
1072
1068
1057
1043
1029
1015
999
980
956
939
922
907
897
890
886
881
881
884
883
888
886
884
883
880
882
881
880
881
882
884
884
887
889
888
886
885
885
885
883
887
889
890
891
891
891
890
890
887
885
887
890
889
892
891
894
895
895
895
895
894
894
892
891
892
894
893
892
894
895
896
897
897
895
897
895
895
899
900
903
905
905
905
902
901
900
899
897
899
903
907
908
908
907
907
908
907
902
901
902
902
899
901
901
902
902
901
899
896
893
890
891
891
891
893
892
889
885
885
880
880
878
876
876
878
876
876
878
877
876
871
872
870
869
869
867
867
867
868
869
870
868
868
867
866
862
859
859
858
859
860
860
863
860
859
862
855
856
855
850
851
853
853
853
854
852
853
851
849
847
844
843
844
845
847
848
851
848
851
850
849
849
847
845
846
847
848
852
851
852
852
849
847
847
847
847
847
848
851
850
853
852
853
852
852
851
852
850
852
849
853
857
857
856
856
856
855
854
853
851
851
852
854
858
860
860
862
859
859
858
857
855
856
858
859
862
864
864
863
860
862
862
859
860
863
863
862
864
865
866
865
867
867
867
868
867
865
867
866
866
869
869
871
870
872
871
870
871
870
872
872
874
875
876
876
876
874
874
873
871
873
875
878
880
882
882
881
878
877
877
872
876
878
880
882
883
886
884
885
881
880
878
878
876
878
882
882
884
885
884
887
888
885
885
885
886
891
893
894
896
898
898
898
898
897
896
896
898
896
896
897
900
903
901
901
902
900
898
896
892
892
893
890
890
890
890
890
891
892
890
888
890
889
892
894
894
898
897
896
897
896
895
897
898
902
906
916
932
950
973
997
1018
1032
1045
1052
1056
1064
1070
1079
1083
1085
1078
1066
1049
1033
1016
996
976
963
951
939
928
921
917
910
908
903
904
902
905
904
906
907
909
911
912
911
908
907
908
908
907
908
909
911
910
913
914
914
912
910
909
910
910
911
911
914
915
918
914
916
915
915
914
915
911
914
911
916
920
918
918
920
918
916
918
915
915
916
916
916
921
923
922
921
923
922
921
922
921
921
923
926
927
929
928
928
929
924
924
926
925
926
926
929
928
931
929
927
923
925
923
922
920
919
919
921
920
920
919
917
913
909
906
905
903
903
902
902
902
902
897
899
898
895
895
891
890
891
891
893
892
895
894
892
890
886
883
884
882
882
883
884
886
888
887
882
880
879
878
875
874
877
877
879
876
878
879
875
875
876
874
872
869
870
871
871
875
877
873
871
874
873
868
868
867
869
871
872
874
877
877
874
873
872
870
872
871
870
871
872
875
878
875
875
875
873
873
871
869
872
873
875
876
879
877
878
874
873
873
874
873
873
874
877
877
878
880
880
879
881
879
877
875
876
875
877
876
880
880
881
878
878
879
878
876
876
875
877
880
881
883
882
882
879
880
878
878
878
881
880
881
882
884
885
883
884
878
879
880
880
879
881
881
883
883
883
883
881
881
880
880
880
882
883
884
888
888
886
886
882
882
881
879
880
882
884
885
886
883
883
883
886
882
883
883
885
886
888
888
891
891
893
892
889
892
893
892
893
896
897
899
900
900
902
903
900
903
901
900
898
899
900
903
904
905
902
904
901
897
896
891
894
894
893
896
898
898
898
897
896
895
893
893
895
894
896
895
901
902
901
901
902
903
907
910
916
930
948
971
999
1024
1047
1065
1079
1088
1095
1095
1100
1098
1095
1084
1072
1057
1047
1033
1016
1001
984
966
951
938
929
921
916
911
911
910
913
914
913
912
910
911
913
915
918
918
919
918
916
917
917
916
920
921
922
925
927
927
927
926
926
927
925
925
926
929
929
931
932
933
933
935
933
933
930
926
927
931
934
933
938
936
939
938
936
937
937
938
938
939
941
941
942
941
943
941
940
940
940
940
940
942
944
945
947
947
947
949
949
949
948
948
948
946
943
943
946
944
944
942
941
938
937
933
931
930
929
931
930
930
932
929
926
924
921
918
912
915
916
917
916
912
906
901
901
898
899
898
895
899
899
900
902
901
902
905
906
906
903
899
895
891
889
891
895
895
895
898
895
892
889
885
883
883
885
890
894
893
893
891
888
885
883
882
884
886
882
888
887
889
889
890
889
888
886
885
884
883
881
880
881
883
879
883
883
884
883
885
886
884
879
878
876
879
884
884
882
881
882
882
880
880
881
884
886
888
887
883
883
881
880
880
884
884
884
882
882
884
885
888
887
889
886
886
881
881
879
879
876
877
878
880
884
884
880
879
878
876
881
882
885
885
884
885
884
880
879
880
880
880
880
881
880
884
885
884
882
883
880
877
877
876
881
882
885
887
886
886
885
886
884
882
882
881
885
884
888
888
884
881
880
880
881
884
885
889
890
890
885
883
881
882
882
887
886
886
885
889
891
893
895
895
895
893
891
889
889
893
895
895
897
900
899
899
896
896
897
895
893
896
895
894
895
893
895
895
898
903
902
902
898
893
890
888
887
886
887
889
889
891
890
890
887
886
886
889
891
893
895
896
896
896
896
899
904
914
928
953
980
1009
1034
1058
1077
1087
1092
1094
1095
1095
1089
1080
1069
1056
1046
1031
1015
993
971
951
936
926
917
907
903
899
900
893
895
896
895
894
895
893
894
895
896
901
902
903
901
902
897
897
896
897
898
899
898
901
904
904
905
907
904
905
905
905
906
904
907
907
911
911
912
909
911
911
908
908
909
909
912
912
916
917
917
917
916
916
915
914
914
914
918
918
920
920
922
920
920
919
919
918
919
921
923
924
926
927
927
926
925
924
921
923
923
923
926
925
926
927
927
923
922
917
916
916
914
911
911
909
910
908
910
909
906
905
903
897
896
895
893
891
897
895
896
896
893
890
890
885
887
887
886
888
889
890
888
885
885
884
882
882
882
884
884
885
887
888
887
886
884
883
879
879
876
876
878
881
880
881
879
880
877
877
875
874
875
875
874
874
876
875
876
875
875
873
873
873
875
873
875
875
876
873
874
872
870
869
868
865
866
868
867
870
873
874
875
874
873
870
868
867
866
867
867
868
872
870
873
875
873
869
866
867
866
864
867
868
871
873
870
870
869
867
863
866
863
869
870
869
872
872
872
870
871
869
865
868
868
865
869
870
873
873
875
873
874
871
870
868
869
871
869
870
871
873
874
874
873
873
871
868
867
869
869
871
872
873
874
874
873
871
869
869
869
868
870
872
872
876
875
874
873
873
871
867
870
867
871
873
873
875
873
872
869
871
870
871
869
872
873
873
876
874
873
871
872
872
872
872
877
879
882
884
882
883
882
885
884
883
883
881
879
882
880
883
886
887
887
886
887
883
881
880
882
883
882
879
881
878
876
874
873
871
871
870
870
870
871
871
873
874
873
872
873
873
871
872
871
874
877
885
894
909
927
948
970
989
1009
1024
1034
1044
1055
1064
1074
1076
1073
1060
1039
1019
992
966
941
921
908
899
892
884
878
873
870
868
866
869
870
872
873
874
874
876
875
876
873
874
874
874
874
874
875
875
875
875
874
875
874
875
871
871
871
874
874
876
877
878
880
879
877
877
877
877
878
879
880
879
879
881
878
877
874
875
872
870
875
877
879
878
882
880
885
884
882
881
880
875
877
875
878
881
883
886
885
887
884
881
881
880
880
880
880
880
879
882
880
878
875
875
873
872
871
871
870
869
869
868
866
862
862
858
853
852
849
848
847
847
847
847
846
843
843
839
838
834
835
834
835
834
834
833
831
830
831
830
829
825
824
821
819
820
821
824
822
823
821
822
823
822
823
825
823
823
820
814
812
805
802
800
800
805
808
811
814
814
816
814
812
809
811
810
808
807
809
807
809
810
813
815
815
817
820
817
816
815
817
816
818
818
819
819
819
816
816
817
816
818
818
820
822
825
829
827
826
824
823
821
818
820
822
824
826
828
827
828
826
826
825
824
823
822
821
821
820
820
821
825
826
827
828
825
822
819
819
821
821
823
825
825
823
824
823
825
823
824
825
826
822
821
823
824
824
824
824
821
819
818
820
818
818
820
820
824
823
825
823
821
816
817
812
813
815
815
819
822
827
826
825
820
816
814
814
816
816
816
817
816
817
818
818
818
818
816
820
821
824
826
830
833
833
832
829
829
827
823
821
822
825
826
829
831
831
832
830
831
828
829
829
828
828
828
825
826
824
822
819
816
814
813
815
814
816
819
820
820
821
821
817
816
814
813
813
814
820
825
834
847
862
880
902
922
941
959
970
977
983
990
1000
1010
1017
1018
1010
994
973
950
927
904
886
868
858
848
839
834
827
823
818
823
824
827
830
830
832
833
832
831
832
830
830
831
830
830
829
831
832
834
833
833
832
833
831
830
829
831
834
834
837
839
840
841
841
843
841
838
837
836
838
840
841
842
842
843
841
841
843
840
841
842
843
845
845
847
846
849
846
849
848
847
849
847
847
847
851
852
853
853
854
850
850
848
849
851
851
852
855
859
859
857
854
851
849
844
846
846
848
846
846
845
844
844
841
842
838
834
833
833
833
831
830
831
827
824
824
822
820
818
820
818
819
822
822
822
820
818
816
814
814
814
814
813
812
814
819
816
812
809
809
809
809
810
810
810
808
808
807
809
806
808
808
804
803
801
802
803
803
801
802
804
805
804
803
801
800
797
796
795
797
800
802
803
805
807
808
808
802
800
799
800
801
803
802
805
806
808
807
807
807
804
800
801
803
805
807
810
809
809
808
810
808
811
809
810
808
810
812
815
811
815
812
810
806
804
805
807
809
809
809
812
814
815
817
817
815
812
808
808
809
811
813
816
818
819
818
819
819
816
815
814
813
814
816
816
815
816
813
815
813
812
811
813
812
814
813
815
819
818
818
818
817
815
814
812
813
816
816
820
815
816
819
819
818
818
815
814
814
813
818
824
825
824
823
823
821
820
817
814
816
817
819
828
832
835
835
838
838
839
834
829
830
831
832
833
833
833
831
832
832
832
832
830
833
833
836
841
841
838
838
834
831
829
827
821
820
818
819
818
822
822
823
824
828
832
832
831
830
827
825
821
818
821
825
833
838
845
854
869
890
911
930
947
962
973
982
988
995
1002
1011
1017
1019
1017
1006
989
971
949
928
908
893
883
874
864
856
844
839
836
835
835
836
833
829
825
828
830
833
834
836
840
839
847
851
853
853
847
841
836
837
840
842
841
840
839
840
839
835
833
832
834
840
846
848
849
850
851
851
849
849
848
846
846
845
847
849
851
849
848
847
848
850
848
851
850
851
850
852
853
855
855
857
855
854
854
856
858
862
861
862
861
855
856
859
857
859
858
859
859
859
858
858
861
861
861
859
855
851
851
852
849
847
848
848
852
852
852
849
845
839
838
838
840
842
839
834
834
832
829
825
824
822
824
825
828
823
821
815
814
813
817
821
818
816
812
808
806
808
814
814
819
816
815
813
812
815
813
807
807
803
802
804
807
808
808
806
802
802
805
802
801
801
802
805
810
815
815
811
806
798
796
794
796
797
797
798
800
800
800
802
803
802
803
801
798
794
790
790
794
797
801
805
810
809
806
798
796
796
797
800
804
805
806
805
801
800
800
799
801
805
810
812
813
813
808
806
799
799
799
800
804
805
809
812
812
811
808
806
801
801
803
803
806
807
809
807
810
811
811
813
813
812
809
804
802
805
808
813
817
814
810
804
801
798
798
802
805
807
810
811
813
812
816
817
817
811
808
800
798
800
806
811
820
819
815
811
805
800
797
801
803
808
810
813
815
815
816
816
813
812
813
813
814
814
815
816
820
821
823
824
822
823
822
820
820
821
823
824
824
826
825
825
822
821
821
821
821
821
822
819
818
817
814
818
815
815
814
812
810
811
810
811
813
814
814
812
809
809
807
807
812
814
817
823
825
828
832
841
857
876
897
919
938
953
967
973
978
980
988
992
997
994
983
965
944
924
903
883
868
858
847
841
831
822
818
813
812
815
820
820
821
821
818
815
815
815
819
817
819
821
823
825
826
824
827
827
828
827
823
820
821
821
822
821
827
829
831
831
832
830
829
830
829
831
830
834
838
836
834
837
836
835
835
832
833
836
837
839
841
840
840
840
840
839
836
836
837
839
843
847
848
848
848
849
847
849
850
849
848
848
849
850
855
856
856
855
853
854
851
851
848
849
849
850
852
851
851
850
847
843
839
837
836
835
834
836
837
834
831
829
827
825
823
818
819
821
820
820
820
818
817
813
814
812
810
810
809
809
810
809
814
814
811
811
808
808
806
805
804
804
804
805
805
806
806
807
803
804
802
800
799
800
804
804
805
803
803
799
799
797
798
797
798
798
800
803
804
803
803
803
799
799
800
797
801
801
800
801
803
803
804
805
803
802
803
802
802
803
803
806
808
808
808
810
809
806
806
805
805
807
808
806
811
811
813
809
808
806
806
807
807
807
808
810
812
813
815
811
812
811
810
808
807
809
812
812
815
813
813
814
813
814
811
810
810
813
814
814
814
814
812
812
809
811
814
813
812
814
815
818
818
818
818
819
815
814
814
813
814
815
819
818
822
823
819
819
818
820
817
816
814
815
819
821
821
822
821
822
820
821
818
816
818
819
823
826
831
834
834
833
831
829
830
828
833
834
834
834
835
835
835
834
831
831
832
831
832
832
833
833
834
834
831
832
827
826
823
821
823
824
828
828
829
828
831
829
831
830
831
828
831
833
838
841
846
852
861
876
894
917
940
962
981
995
1002
1006
1012
1018
1022
1020
1012
1002
987
972
951
935
921
902
892
881
871
860
850
842
837
834
836
837
840
844
846
848
850
847
844
843
842
841
842
843
845
848
850
852
853
850
850
849
846
846
846
848
850
853
854
856
857
857
856
855
854
855
856
857
858
860
860
861
860
860
858
858
858
859
858
857
861
862
865
867
867
867
866
866
862
863
863
865
869
873
873
875
875
875
872
871
871
871
873
874
873
875
874
875
875
873
873
871
869
867
866
865
865
864
864
862
858
855
853
848
847
845
842
843
842
842
839
839
838
837
834
832
830
831
830
829
832
831
833
834
835
833
832
829
827
826
825
826
828
826
824
827
828
828
825
824
824
819
823
823
823
824
824
825
823
820
822
821
819
820
819
820
822
820
822
824
824
823
821
819
818
816
819
821
820
820
825
825
825
823
822
821
819
819
820
820
823
823
824
825
827
828
827
826
824
824
822
822
827
829
829
830
831
829
826
827
823
823
824
827
826
828
831
831
829
831
831
830
829
826
827
828
828
829
831
831
834
834
833
835
831
830
832
833
834
835
837
836
837
837
836
835
836
833
833
834
837
836
836
836
836
839
837
837
835
832
833
834
835
837
839
837
837
837
837
837
836
834
833
836
838
840
841
841
839
842
842
842
839
838
838
841
841
846
850
852
854
855
854
852
849
849
850
849
852
855
857
858
857
856
853
853
849
851
848
851
854
853
855
856
853
853
849
845
842
841
840
842
841
844
848
848
849
849
847
847
846
844
846
847
849
853
855
858
861
868
877
891
906
927
954
974
994
1007
1013
1017
1023
1026
1028
1029
1026
1012
999
986
967
948
934
918
905
893
883
876
867
860
857
854
857
859
858
861
862
863
863
862
860
856
856
862
862
865
864
867
868
868
866
865
865
864
864
866
870
869
874
872
871
873
875
872
872
871
871
874
872
874
878
879
880
881
877
880
876
876
879
879
881
882
883
884
886
884
883
885
881
879
881
883
885
885
888
888
890
890
890
889
887
887
887
890
891
891
894
896
898
895
895
894
889
888
888
887
888
890
891
890
887
887
883
882
879
876
873
869
867
865
867
866
869
866
863
861
858
855
852
850
852
854
855
852
852
851
853
852
846
847
849
850
848
847
848
849
851
849
850
846
845
842
842
843
844
845
845
848
846
843
843
842
840
839
840
840
843
843
843
842
843
842
842
840
837
835
836
834
837
838
839
842
842
842
840
839
836
834
835
834
834
835
840
840
839
836
835
838
836
835
835
836
838
838
839
842
842
842
840
838
838
836
836
836
840
841
844
844
845
844
844
841
840
839
839
841
839
840
846
845
846
846
845
844
844
842
845
844
847
849
850
851
850
850
852
852
847
845
846
845
847
849
852
851
852
852
850
849
848
848
846
846
846
849
852
854
852
853
852
851
851
848
848
848
849
851
851
854
851
852
850
850
847
846
849
851
854
857
859
861
863
864
864
864
863
861
862
859
865
867
871
872
871
872
870
869
867
867
865
867
870
871
872
872
871
866
865
866
867
860
862
861
861
859
860
862
864
864
861
860
861
860
861
861
863
866
869
871
873
877
882
888
900
918
940
964
988
1008
1022
1034
1037
1038
1043
1045
1050
1044
1038
1021
1006
990
977
959
945
926
913
901
892
884
876
872
869
869
871
872
872
874
871
872
870
871
870
870
870
873
876
878
879
877
875
876
875
875
875
877
877
878
882
882
885
882
884
884
882
881
882
881
882
887
887
889
890
890
888
886
886
885
887
889
891
892
892
893
894
890
891
891
889
890
890
894
896
897
899
899
899
898
898
899
899
899
898
900
902
904
903
904
906
905
904
905
902
899
899
901
902
903
903
905
904
903
898
895
894
889
888
889
890
891
888
891
887
883
879
879
873
872
870
870
869
870
871
872
872
867
868
868
866
865
866
866
866
867
870
871
867
864
866
865
862
860
858
859
864
864
866
867
865
863
864
860
858
853
855
856
858
858
858
859
859
859
857
855
852
851
851
852
852
852
854
855
853
854
851
851
850
847
845
848
851
853
856
858
856
857
855
852
852
852
852
851
851
856
855
857
856
858
855
852
852
853
852
853
855
856
857
859
858
858
855
855
854
853
853
852
854
856
857
861
860
858
857
855
854
856
855
857
859
860
859
863
861
863
864
862
861
858
858
860
860
861
863
864
864
864
863
863
861
860
858
860
862
864
866
866
865
864
865
865
863
863
864
861
864
865
867
868
869
866
866
865
866
863
865
867
869
873
875
878
877
878
879
880
879
879
876
877
878
883
883
884
887
883
882
882
880
878
879
880
879
882
883
883
882
877
878
874
874
871
869
871
871
873
871
872
872
873
871
871
870
871
873
872
874
875
879
883
888
889
894
903
917
935
959
984
1009
1032
1050
1062
1064
1070
1073
1074
1073
1066
1051
1036
1019
1005
987
971
956
942
925
912
901
892
889
884
885
884
884
886
888
886
885
883
882
882
880
882
884
885
888
889
890
890
890
889
886
887
889
888
891
892
893
896
897
895
895
893
890
890
890
892
890
895
897
899
901
900
897
897
896
895
896
897
898
900
900
904
903
903
902
901
899
898
900
898
900
906
908
908
909
910
910
910
905
907
907
907
909
910
910
913
912
912
910
911
909
908
906
907
909
908
910
908
909
907
904
900
897
896
895
894
894
894
894
893
889
889
886
882
880
878
878
877
871
871
874
876
875
874
875
873
873
870
868
870
871
873
873
872
873
873
872
868
868
866
863
866
868
870
869
871
868
872
869
869
867
866
864
864
864
864
866
868
867
864
865
862
862
862
860
860
861
862
861
862
863
860
861
860
859
858
856
857
859
859
862
862
862
861
861
860
859
859
860
858
861
861
862
864
864
865
864
863
863
863
863
863
864
865
865
868
866
864
861
862
861
863
864
863
865
865
867
867
865
867
868
867
865
867
866
865
868
867
868
870
873
870
869
869
866
865
863
864
866
867
868
870
871
872
872
870
865
869
866
868
869
871
872
874
873
870
869
869
868
869
870
866
871
870
872
876
876
874
873
872
872
871
871
868
871
874
875
875
877
876
876
876
875
875
876
878
882
884
887
892
892
889
890
888
888
886
886
887
888
888
891
891
890
891
890
889
886
887
883
886
886
884
885
886
885
883
882
879
876
873
870
871
874
877
877
880
882
881
881
880
880
882
881
879
882
885
888
896
903
910
922
937
958
979
1001
1021
1038
1050
1061
1070
1077
1078
1080
1072
1057
1040
1020
997
979
959
943
927
919
910
904
897
891
890
887
885
887
889
893
894
893
893
892
892
891
891
889
890
892
893
895
899
899
899
899
900
898
898
896
895
898
900
902
906
906
904
903
903
902
899
900
901
905
908
909
910
909
908
906
906
905
906
906
907
909
910
910
913
913
911
913
913
912
911
911
911
913
914
915
920
919
921
919
917
916
916
917
917
921
921
922
925
924
923
921
919
918
916
915
914
915
915
915
914
914
912
911
906
906
902
899
897
897
896
894
895
892
892
889
887
886
883
881
879
882
882
883
883
882
881
880
880
878
875
876
876
875
878
879
881
880
880
878
877
874
877
877
876
874
877
877
879
877
876
874
871
868
869
868
867
870
870
872
874
870
869
867
864
864
863
863
861
864
865
864
867
865
866
865
865
865
862
862
860
861
863
867
868
868
867
867
865
863
862
862
860
865
865
868
867
868
867
867
867
868
867
866
866
868
869
868
872
871
871
870
869
868
867
864
863
863
866
870
869
872
872
870
870
871
868
866
867
870
870
871
875
874
875
871
869
871
869
868
864
865
869
870
874
873
873
872
873
871
871
871
869
871
873
875
877
873
876
875
874
872
870
869
869
870
872
873
877
876
878
877
876
876
873
873
871
873
876
875
879
880
879
881
880
879
879
882
881
884
885
883
889
891
893
893
889
887
886
884
883
885
889
888
891
892
890
892
888
887
885
880
880
878
880
880
879
879
878
878
879
879
878
876
876
877
881
884
883
885
887
888
888
889
894
902
912
928
946
968
991
1009
1027
1038
1045
1050
1051
1057
1064
1068
1069
1062
1053
1035
1014
995
972
952
933
920
912
904
899
893
891
891
890
888
889
888
890
889
889
890
892
893
894
898
894
894
895
894
894
893
891
894
896
897
899
901
902
901
900
900
899
900
901
901
902
905
907
908
907
907
906
903
905
904
905
906
907
908
910
911
910
908
910
909
907
907
909
911
913
915
916
919
918
917
917
916
915
913
914
915
920
921
922
924
923
926
924
923
921
921
920
921
920
924
923
923
922
919
918
913
911
912
909
907
907
907
906
904
904
902
900
898
895
889
888
889
888
888
888
888
886
886
884
884
883
881
882
882
885
886
887
887
886
887
886
885
884
881
881
883
883
885
885
887
885
884
881
881
880
876
876
877
878
878
880
879
879
879
877
872
871
871
869
872
871
873
874
874
873
872
872
869
868
865
865
867
868
870
872
873
873
873
872
872
867
868
870
869
872
872
875
876
873
876
873
874
870
870
871
871
873
872
875
875
875
876
871
873
874
874
872
871
874
876
878
877
875
876
878
876
875
873
873
876
877
877
876
880
880
878
876
874
874
875
875
875
876
877
877
880
880
877
876
875
872
874
876
875
875
876
877
878
879
879
879
881
878
879
877
880
879
882
880
886
884
884
882
882
879
879
878
878
879
881
882
881
880
883
884
882
880
880
882
885
889
893
896
896
899
897
894
892
891
890
892
893
896
897
898
899
896
895
892
891
893
895
893
892
893
894
893
892
891
891
890
887
884
883
884
884
883
885
885
885
887
887
887
886
885
885
887
891
895
899
902
910
923
937
954
975
995
1016
1035
1050
1060
1064
1072
1077
1079
1077
1071
1058
1042
1023
1008
990
972
960
945
935
926
919
910
903
896
892
893
891
896
899
901
899
902
902
899
899
897
896
897
895
897
900
906
908
906
907
906
905
903
903
902
904
904
905
908
910
909
910
909
911
910
909
908
910
911
913
916
915
916
916
914
916
913
911
910
912
913
915
918
920
920
918
917
917
918
917
918
921
922
925
928
930
930
927
926
928
925
925
926
924
927
929
931
932
931
930
927
926
922
921
923
923
923
923
922
923
922
918
917
916
912
908
905
905
906
906
907
905
905
903
896
893
890
891
888
888
890
891
895
894
896
891
891
887
887
885
884
884
888
890
891
891
893
892
891
889
889
888
886
885
888
889
890
889
886
883
885
881
882
880
880
881
881
882
884
884
880
880
879
875
874
873
873
877
878
878
877
881
879
877
876
875
873
872
871
872
874
875
877
878
877
877
879
875
872
869
871
874
875
873
878
880
880
880
879
879
878
878
875
879
878
880
883
884
883
882
880
881
880
877
880
880
883
885
887
888
886
884
882
882
880
881
882
882
884
886
888
890
888
886
884
883
883
882
882
883
881
885
886
887
888
887
886
887
886
885
885
884
883
884
887
885
886
886
884
885
883
882
884
884
885
887
888
889
890
890
890
887
885
885
887
888
890
890
888
892
891
891
890
889
888
885
886
888
889
891
894
897
897
896
896
896
897
898
898
900
900
903
903
906
904
904
904
905
900
901
900
899
900
900
903
905
905
905
904
902
899
898
896
892
897
893
894
896
896
894
893
893
893
892
892
892
895
897
894
900
901
901
899
898
901
903
910
919
932
951
973
999
1024
1051
1071
1087
1097
1100
1105
1108
1111
1108
1103
1090
1072
1056
1040
1024
1008
992
977
964
949
941
932
926
920
916
910
908
906
906
904
907
908
908
910
913
913
913
912
911
906
908
908
909
911
911
913
915
915
915
914
913
913
913
912
912
914
914
917
918
919
919
918
916
916
913
913
912
917
918
921
923
923
923
920
919
918
920
919
919
920
925
926
926
926
928
927
925
926
923
924
923
924
928
931
931
930
931
932
933
931
931
931
932
933
933
934
934
931
933
930
928
927
922
924
922
922
921
921
920
917
915
913
911
906
903
903
900
900
899
901
901
899
898
896
895
893
895
892
894
894
893
894
893
896
895
893
892
892
889
889
888
890
892
894
894
897
896
893
893
888
889
888
887
886
887
891
890
891
890
888
887
886
882
881
882
882
884
885
886
886
886
883
882
880
879
878
878
879
880
881
880
882
883
881
878
877
876
875
878
877
880
880
882
880
882
882
880
879
879
879
878
881
882
884
882
884
883
882
881
882
880
879
880
880
881
883
885
885
885
885
882
882
880
878
880
881
884
885
885
885
887
885
884
882
882
883
881
883
885
885
888
886
887
885
884
884
884
885
883
885
887
886
890
890
889
889
889
886
882
883
885
886
889
887
890
888
887
885
887
885
885
884
884
885
885
886
888
889
889
889
887
888
886
886
885
885
888
889
890
890
891
891
891
894
892
893
894
896
897
900
899
897
897
897
898
896
895
892
894
894
898
897
901
901
903
900
899
897
894
894
890
891
891
888
888
889
892
887
887
885
886
884
883
884
888
889
892
891
892
892
891
891
894
893
897
903
913
926
947
967
991
1014
1039
1059
1074
1080
1088
1095
1100
1104
1101
1090
1075
1058
1043
1025
1008
990
972
955
945
934
926
917
911
904
899
898
896
895
897
899
898
900
902
902
904
899
897
896
894
898
901
902
903
906
907
905
906
905
904
904
903
901
901
902
904
905
911
910
909
909
909
909
906
906
908
910
911
913
914
915
914
912
911
910
911
908
912
914
916
916
917
917
916
917
917
915
915
916
918
920
919
921
922
921
922
922
917
919
920
917
920
923
923
925
925
922
924
918
917
918
914
911
911
912
911
913
912
909
909
907
905
901
897
895
893
892
894
893
895
894
892
891
887
885
885
883
881
883
881
882
884
883
886
882
883
881
881
879
879
880
882
887
886
883
883
880
876
875
874
873
874
875
877
877
878
880
879
877
875
873
871
868
869
870
871
872
876
873
873
871
868
865
866
861
863
866
866
862
864
864
865
864
863
860
862
861
859
861
861
863
864
867
866
865
864
863
863
861
863
864
864
863
868
868
869
868
867
867
866
865
866
865
868
868
873
871
869
869
869
867
866
865
867
870
870
872
870
870
869
870
872
870
870
867
867
868
871
872
874
872
870
872
871
872
870
870
870
873
873
874
876
875
875
876
873
872
871
870
869
872
874
876
875
875
877
875
874
872
874
872
871
872
873
875
877
876
873
875
871
871
872
869
871
872
872
878
877
878
877
875
873
872
870
869
868
871
873
877
880
879
880
879
880
882
883
884
883
882
883
886
887
886
886
886
886
885
884
885
885
886
886
888
888
887
884
884
881
879
876
873
869
870
873
874
878
877
879
878
875
876
874
875
873
874
876
880
884
886
884
886
896
905
919
938
960
986
1009
1032
1048
1058
1066
1071
1077
1082
1081
1070
1059
1043
1028
1011
991
972
954
939
924
912
902
892
888
885
884
882
887
886
884
886
882
883
881
883
883
886
887
888
888
891
889
890
888
888
887
888
887
889
890
893
895
894
890
891
890
888
887
890
889
894
893
893
897
895
897
895
896
896
895
894
892
894
896
897
900
899
898
900
899
896
896
898
900
901
900
902
907
904
902
904
902
904
907
904
905
907
908
909
909
912
911
910
910
909
904
903
906
906
910
909
909
906
902
901
900
898
896
893
892
892
893
892
891
890
888
886
885
881
880
876
877
875
876
877
879
878
878
875
873
871
871
870
866
871
872
874
875
876
875
872
870
869
867
866
866
866
866
868
869
869
869
864
864
859
858
856
856
858
858
860
860
859
857
859
857
854
852
851
851
852
853
855
854
854
855
851
849
848
847
847
845
845
847
847
850
851
852
853
849
850
848
846
846
845
847
849
851
852
850
850
850
846
844
848
846
847
850
850
852
852
853
853
852
849
849
848
847
847
849
852
854
855
856
853
852
854
852
851
852
852
852
854
856
856
856
856
854
853
851
850
853
853
857
857
857
858
858
854
855
852
852
853
850
852
855
854
858
854
856
857
855
855
855
853
852
855
855
858
859
859
859
858
857
856
854
852
854
854
856
856
859
857
860
857
856
856
853
853
853
856
858
857
859
864
861
862
860
860
858
857
860
859
861
862
866
870
871
871
871
871
869
866
867
868
869
870
872
874
872
872
871
870
868
867
868
869
871
874
875
872
872
870
867
865
863
859
860
860
861
864
864
863
865
864
863
864
861
860
862
863
866
868
871
874
878
882
891
902
920
938
962
982
1005
1022
1033
1039
1044
1048
1054
1055
1052
1042
1030
1016
1002
987
971
951
936
920
903
895
884
874
872
870
868
870
870
869
871
871
871
871
871
871
871
873
876
877
878
878
880
880
877
877
877
877
876
878
880
879
881
885
885
882
882
880
882
880
879
882
882
885
886
888
889
886
888
883
883
883
884
883
884
889
891
891
892
890
891
888
887
890
887
888
892
893
894
894
894
896
895
895
894
893
893
897
898
897
899
899
896
898
897
896
893
894
894
892
894
895
896
895
894
891
890
887
885
880
881
876
877
877
876
876
875
872
868
867
866
864
862
861
861
862
864
863
863
863
860
861
857
854
852
854
856
858
860
860
860
861
858
856
852
852
852
851
851
853
855
854
853
852
849
847
844
840
841
843
843
844
845
844
845
844
842
841
840
838
838
839
838
841
839
840
840
841
836
836
834
834
833
837
839
837
841
842
841
836
838
840
838
838
838
840
841
841
844
844
846
844
845
845
842
841
842
841
844
845
847
849
846
846
847
846
845
846
843
846
847
849
849
851
850
848
848
847
846
845
845
845
849
851
853
852
853
853
850
850
847
847
848
850
851
852
854
856
855
854
853
851
851
850
849
849
850
851
856
857
857
858
857
856
854
853
852
853
854
854
856
857
857
858
856
855
853
852
855
856
858
858
859
864
863
865
861
863
861
859
861
862
866
871
873
877
878
879
875
875
871
871
873
877
878
880
880
882
882
880
878
876
878
878
880
879
881
881
880
882
877
878
874
872
868
867
868
869
871
872
874
874
875
876
874
873
873
872
872
876
879
881
885
887
889
897
908
924
945
968
992
1016
1037
1052
1061
1067
1075
1082
1080
1075
1068
1053
1037
1020
1001
983
966
948
933
920
911
903
894
889
887
885
886
887
888
888
889
892
890
888
886
886
886
890
891
893
894
893
894
893
895
892
891
892
892
893
895
896
896
898
895
894
893
894
894
894
896
897
900
900
902
903
902
901
900
900
902
902
903
903
904
905
902
904
906
907
904
903
903
905
905
906
907
910
909
911
912
911
909
910
909
910
910
911
912
914
915
913
915
915
911
909
909
909
907
907
907
905
907
910
907
906
902
900
897
896
896
894
894
893
891
889
887
885
883
882
877
876
876
874
875
876
876
878
876
876
873
870
870
869
867
867
870
870
873
872
872
872
871
870
867
865
864
865
866
865
869
868
869
868
867
866
863
862
861
861
863
863
861
864
864
862
860
861
858
855
856
854
857
859
861
861
861
861
857
857
856
854
854
856
856
856
859
861
861
857
857
858
854
854
854
855
858
859
859
858
859
860
858
858
857
854
856
854
856
857
860
861
861
861
861
858
858
856
857
857
859
860
862
864
863
864
862
863
860
858
858
859
861
862
863
864
867
865
863
861
860
859
859
860
862
860
865
867
867
863
863
862
863
859
861
861
863
864
865
865
863
864
862
863
862
860
860
862
862
863
867
865
866
864
865
862
860
861
861
859
863
865
865
864
864
865
863
863
862
860
863
860
862
863
863
864
864
865
865
863
862
863
863
864
865
868
870
876
877
876
875
874
872
870
871
871
872
871
875
876
875
875
873
871
871
869
871
871
872
873
873
871
868
868
864
862
858
858
858
857
855
857
858
860
860
862
860
860
856
856
856
858
863
865
869
873
878
884
898
913
932
955
977
997
1014
1025
1033
1039
1046
1051
1052
1048
1036
1020
1005
989
972
958
940
926
912
899
890
881
872
866
864
862
863
866
868
870
872
871
868
866
868
865
866
868
872
874
874
875
875
873
871
872
872
872
872
872
876
878
878
877
879
876
879
878
877
876
876
880
879
881
883
885
883
884
883
882
883
881
881
881
883
885
885
887
886
886
885
885
884
884
887
887
889
890
893
895
893
893
891
891
892
889
889
894
895
895
896
899
898
898
896
895
894
894
893
896
896
897
897
898
892
894
892
891
888
886
884
884
886
884
884
885
882
879
876
873
870
867
865
867
867
867
867
866
865
864
861
860
858
858
856
859
858
857
859
858
860
859
858
858
855
853
851
852
853
853
851
852
854
853
850
847
846
845
845
845
847
846
846
849
847
845
844
841
841
838
839
839
839
840
840
842
841
841
839
839
836
834
836
836
838
841
840
842
842
838
838
839
836
835
837
838
839
840
840
841
845
844
843
842
840
839
840
840
842
844
844
849
848
849
846
844
845
844
844
845
848
846
848
848
849
845
846
846
842
844
847
849
851
850
849
853
850
852
850
850
849
848
849
848
848
850
850
853
852
854
852
855
852
850
852
852
853
853
854
854
855
856
855
851
851
851
850
851
852
854
853
854
854
849
851
852
851
851
848
850
854
854
858
858
857
855
854
855
853
853
852
854
853
855
854
856
858
858
858
855
855
855
855
856
861
867
867
872
870
869
867
867
866
869
867
866
868
870
871
872
871
870
868
868
867
867
863
864
864
865
861
862
861
857
857
859
859
854
855
855
855
859
863
864
864
861
860
860
864
863
868
870
876
888
904
927
950
976
1000
1023
1035
1045
1052
1058
1064
1064
1065
1060
1046
1031
1014
998
981
965
947
931
918
904
897
889
881
877
871
868
866
867
866
867
871
871
874
876
879
875
877
873
871
873
873
873
877
878
880
881
882
883
881
880
877
878
879
878
882
883
884
888
887
886
889
888
885
885
885
888
888
889
890
893
894
893
890
887
887
886
888
888
891
891
894
896
895
897
896
897
896
895
894
898
899
902
905
906
905
904
904
905
904
903
903
902
901
902
903
905
904
903
902
901
900
898
895
896
896
893
895
897
895
893
889
885
885
882
880
879
878
877
875
876
875
873
872
871
870
869
864
866
866
867
870
870
871
870
870
869
868
867
866
864
864
867
868
868
868
865
864
862
863
863
863
861
861
862
863
864
864
864
862
861
858
856
857
853
854
854
855
859
857
858
858
855
856
853
854
852
853
857
855
858
861
859
857
854
853
851
852
851
854
855
855
857
858
857
858
856
855
856
852
854
855
855
860
861
859
859
858
856
852
853
853
855
853
857
854
857
860
859
859
858
856
852
851
853
856
857
858
859
859
860
857
855
855
854
855
857
856
856
861
861
860
859
858
858
857
855
855
856
858
858
858
860
858
859
857
857
857
854
853
852
854
857
859
861
859
859
859
856
857
856
854
856
855
858
857
862
857
856
856
857
854
854
854
852
855
856
859
859
859
864
862
863
863
865
864
865
866
868
869
871
872
872
871
870
869
865
867
865
866
865
868
871
870
872
870
866
866
862
861
859
859
859
859
861
861
860
859
858
857
855
854
851
855
857
861
862
865
865
866
863
863
867
873
883
899
918
942
970
996
1018
1035
1046
1053
1056
1062
1065
1067
1056
1041
1029
1010
992
972
953
936
920
907
897
888
879
876
873
869
868
867
868
867
868
867
867
869
870
869
872
873
874
874
873
875
874
874
873
874
876
876
880
882
880
879
880
877
876
878
877
877
879
880
881
883
883
882
882
877
878
876
878
881
882
882
885
885
883
885
882
884
885
883
884
883
887
886
892
891
891
891
889
888
888
889
890
891
894
896
897
897
897
897
896
895
893
891
891
891
891
890
893
895
892
891
889
887
886
883
882
880
879
878
879
876
876
873
873
867
867
867
866
865
868
866
867
867
866
864
861
861
859
858
858
858
860
857
860
862
862
861
859
859
854
854
854
854
856
856
858
859
856
857
853
852
848
845
850
850
851
849
849
847
846
846
847
843
844
842
841
842
844
844
848
847
847
845
843
842
841
841
841
840
844
846
845
847
846
844
842
843
838
839
841
839
841
844
847
847
847
847
844
844
842
842
841
845
846
847
848
850
849
849
848
845
844
844
846
843
845
847
849
848
849
844
845
845
846
843
845
846
849
850
851
852
849
850
848
849
849
847
848
850
850
852
853
853
853
851
852
851
850
849
850
850
851
851
855
854
854
854
853
847
851
851
851
850
850
852
853
855
855
853
851
852
852
851
850
849
852
852
854
857
855
857
855
853
854
853
853
854
854
854
857
857
856
856
858
857
860
861
861
864
865
864
867
868
867
866
867
865
863
862
862
862
863
864
867
866
868
864
867
864
863
863
861
861
862
860
860
859
856
856
855
853
851
851
851
850
853
854
853
856
856
857
858
859
856
856
858
861
870
883
897
916
938
959
981
999
1013
1024
1031
1039
1045
1051
1056
1055
1044
1032
1016
998
979
961
944
929
916
903
895
887
880
875
867
863
861
858
858
860
861
864
865
863
863
865
861
862
861
861
862
863
864
867
867
869
869
870
865
867
866
865
864
867
867
869
871
874
873
871
870
871
869
867
868
871
871
873
876
875
876
874
873
871
871
871
872
873
875
876
879
880
879
880
879
876
877
874
877
878
881
882
883
885
885
883
883
882
882
882
882
884
886
887
889
889
887
886
884
881
882
880
880
880
880
880
883
882
880
878
874
872
871
869
865
867
866
865
866
864
862
861
855
853
849
848
851
851
850
853
851
851
850
851
847
847
846
844
846
847
845
847
848
850
849
848
845
845
844
842
841
842
843
843
843
846
844
843
839
841
839
835
838
836
839
837
839
839
840
835
835
832
832
830
828
831
830
831
832
833
831
833
830
833
831
829
829
830
832
829
833
834
834
832
832
830
829
827
830
830
832
834
835
836
834
834
835
833
832
831
835
835
834
834
838
838
839
838
836
836
832
831
832
835
837
838
839
841
843
842
839
840
836
836
837
839
839
842
841
844
841
841
839
839
839
835
838
838
839
841
842
845
844
843
842
840
839
839
837
838
842
843
845
845
843
843
843
841
840
839
840
842
842
845
848
848
849
847
845
845
843
842
844
842
845
847
849
848
849
849
847
846
847
848
848
849
848
854
858
861
861
860
858
856
856
854
855
857
859
860
861
861
862
865
864
864
859
860
859
861
863
865
867
868
864
860
857
855
851
848
848
850
852
850
853
855
855
854
853
854
854
853
855
856
856
861
865
870
875
890
905
926
951
975
996
1015
1029
1034
1043
1052
1056
1055
1049
1036
1020
1005
987
971
951
934
919
904
894
884
876
869
866
859
860
859
862
863
864
867
867
866
864
865
863
862
864
864
866
867
868
872
873
872
871
871
867
868
870
871
874
875
876
876
876
876
876
874
876
875
874
875
877
876
880
880
880
877
877
877
875
875
877
878
879
881
882
882
884
882
882
882
881
880
883
880
883
885
885
887
887
888
886
885
886
887
887
887
890
889
893
890
889
889
888
885
884
884
884
881
883
885
883
881
880
881
878
875
873
871
868
865
862
862
863
862
858
858
855
852
851
847
847
848
848
848
848
850
849
850
847
847
844
843
844
844
844
844
846
847
847
847
844
843
838
836
839
840
840
838
839
842
843
842
841
838
835
834
835
834
834
835
838
838
835
837
835
833
829
831
831
832
829
833
834
835
831
830
833
829
829
829
827
827
830
830
831
833
833
833
832
832
829
829
827
826
831
833
834
836
837
835
835
833
830
829
828
832
830
831
833
836
838
837
837
836
835
836
835
837
838
839
840
839
840
840
837
837
836
836
836
835
838
838
841
839
839
839
838
840
838
838
836
834
836
838
840
844
842
842
839
838
839
837
836
840
841
842
842
843
843
842
840
840
837
837
842
839
843
845
843
845
847
846
844
845
841
843
844
846
847
848
847
852
852
853
851
849
847
848
849
853
857
860
864
867
863
864
862
860
861
861
859
863
865
865
868
868
866
866
863
862
862
862
863
863
864
864
864
866
864
864
860
856
853
851
850
851
853
854
855
858
858
860
860
858
858
859
859
862
869
876
887
898
918
942
968
994
1016
1038
1050
1062
1070
1077
1080
1077
1061
1046
1024
1007
986
966
949
934
918
909
899
891
881
875
870
867
866
866
867
868
869
872
871
872
873
874
873
874
871
872
871
872
874
876
879
880
881
880
878
877
878
877
876
876
878
879
881
882
882
883
882
878
880
880
881
880
881
883
885
887
889
887
886
886
883
882
881
883
884
885
889
891
887
889
891
891
889
889
889
889
889
892
895
896
896
895
894
895
893
894
894
891
893
893
893
896
895
893
891
887
884
883
879
877
879
879
879
877
873
871
871
867
861
862
860
858
858
859
860
860
861
860
858
857
855
854
854
854
855
855
857
856
860
853
855
855
853
851
848
850
853
853
853
854
854
853
848
850
848
846
844
846
845
844
847
846
846
845
842
840
839
837
837
837
839
840
842
842
841
840
839
839
837
837
836
838
838
839
838
840
839
840
839
839
837
838
833
836
838
840
842
841
840
838
837
838
837
838
837
837
838
841
842
843
843
843
842
840
840
837
838
839
839
841
843
845
846
844
844
844
843
842
843
841
842
842
845
844
846
848
845
846
843
843
844
845
843
843
847
850
847
847
844
845
845
843
843
845
843
845
847
846
849
847
844
845
846
843
841
842
843
844
846
848
849
847
845
845
844
846
845
845
844
846
848
849
847
849
846
846
842
843
844
848
851
853
858
860
862
863
860
859
858
858
859
860
862
862
863
864
863
862
863
861
861
860
860
860
862
863
864
863
861
860
857
856
854
851
848
848
847
847
851
853
852
853
851
850
850
848
850
849
850
852
853
857
858
864
872
882
900
920
946
975
1000
1023
1040
1049
1053
1058
1062
1063
1059
1046
1028
1014
997
980
967
953
936
917
904
892
881
875
865
863
862
863
865
868
865
867
866
864
864
863
865
865
867
869
869
872
872
870
869
868
868
869
869
869
870
872
872
875
876
877
878
876
873
875
874
873
876
879
878
882
880
880
877
876
876
880
877
880
881
881
881
884
883
884
883
883
883
884
883
882
885
887
888
888
889
889
886
885
887
889
889
887
890
892
894
894
894
892
893
893
892
889
888
887
889
891
891
890
889
887
886
883
880
878
875
874
874
875
876
874
872
868
866
862
862
855
850
851
851
850
849
851
849
849
849
849
846
846
846
847
846
849
846
851
850
847
847
846
846
842
843
841
842
844
846
847
846
846
841
840
835
835
835
835
835
836
835
841
838
836
834
832
832
830
829
830
831
830
833
834
833
832
831
829
828
828
828
830
832
831
833
835
833
833
832
830
829
829
827
828
830
830
833
833
831
829
831
829
829
829
829
829
829
832
832
832
833
834
832
832
831
830
831
830
830
832
835
836
837
836
836
836
834
832
831
832
833
835
835
839
838
837
835
834
832
834
832
832
834
836
837
835
839
839
837
837
836
835
835
835
837
837
840
839
840
840
839
836
837
836
831
834
832
838
838
840
840
840
838
838
839
839
837
840
842
845
850
851
855
853
852
851
848
850
847
848
849
851
851
855
855
856
855
855
852
851
852
851
851
851
852
851
849
848
847
844
838
836
834
834
837
838
841
843
843
839
838
840
838
840
838
840
845
848
853
858
864
873
888
905
927
952
975
995
1013
1027
1034
1045
1050
1055
1049
1037
1019
1000
983
965
945
928
911
896
882
873
860
855
849
846
841
843
846
848
849
852
851
852
852
847
847
848
846
845
849
849
853
854
855
854
855
853
852
853
852
851
853
855
859
860
860
860
860
860
861
858
857
857
857
859
861
861
863
861
861
860
863
862
861
863
864
864
864
866
866
866
867
864
863
864
864
861
865
866
869
871
871
871
870
871
866
867
867
865
871
873
874
876
875
874
872
873
870
867
867
865
867
867
868
869
867
865
863
862
858
857
853
851
849
850
848
844
843
842
842
841
841
838
835
836
837
838
836
839
840
838
838
837
835
832
831
832
832
834
835
836
836
835
829
828
829
826
823
824
826
825
825
830
830
829
827
825
824
821
821
818
819
821
821
822
823
819
821
819
818
816
813
814
812
817
818
819
818
818
815
812
813
812
811
812
813
813
812
817
817
815
818
815
815
813
812
810
812
814
817
820
820
821
820
816
816
815
815
812
814
812
812
816
819
820
820
819
816
814
813
814
814
814
819
819
820
818
819
815
816
813
813
817
816
818
821
822
820
820
819
820
818
817
814
812
815
815
816
821
822
820
820
818
818
817
816
818
817
818
821
821
824
823
820
818
817
816
816
813
817
818
819
822
821
824
827
826
825
826
827
830
832
835
835
836
834
833
835
835
833
834
833
831
832
833
833
834
838
839
837
835
831
829
825
826
827
829
827
827
827
825
823
818
817
816
819
818
818
819
824
823
824
821
821
820
821
824
828
830
835
844
859
877
899
924
943
963
980
987
995
1000
1007
1016
1021
1019
1011
997
981
963
945
925
906
887
875
864
857
850
843
835
833
827
825
826
827
827
827
828
831
830
830
833
831
830
828
828
824
828
830
832
832
836
835
839
840
837
835
835
834
838
838
840
841
841
846
844
840
842
842
840
840
841
842
842
846
846
848
848
847
847
847
845
844
845
846
848
849
851
851
853
852
853
852
851
852
852
855
855
857
859
860
861
859
857
859
856
857
855
857
859
855
858
859
857
854
855
853
851
849
847
847
845
847
849
846
844
839
837
835
833
830
829
830
831
831
831
829
829
826
825
822
820
821
820
820
822
820
823
820
823
822
821
819
818
815
815
817
819
816
820
817
819
819
817
817
815
811
811
810
812
811
813
813
809
808
810
808
804
807
807
806
807
806
808
809
808
807
804
804
803
802
802
803
803
804
804
807
805
805
803
804
803
801
801
805
805
807
807
808
808
809
810
808
807
805
806
807
808
810
809
811
809
810
807
810
808
807
808
808
810
812
812
815
815
813
812
809
809
808
809
812
815
817
817
819
816
818
815
814
813
813
815
816
817
819
817
820
818
817
818
819
816
816
813
816
817
819
820
821
820
820
818
820
818
818
821
818
817
818
821
823
823
821
820
820
822
820
819
821
821
822
825
825
825
825
822
820
823
820
824
824
826
827
829
831
830
832
831
832
832
835
834
833
835
836
839
842
844
843
841
842
837
834
834
835
837
838
841
844
841
840
838
836
832
830
831
829
828
830
829
830
828
827
828
827
826
824
827
823
828
828
832
834
835
834
835
836
840
850
860
878
898
922
946
963
982
990
995
999
1004
1011
1020
1021
1019
1011
995
982
963
944
926
909
892
876
867
859
853
846
844
840
836
836
835
834
834
834
835
835
838
840
843
843
843
844
841
840
840
839
839
841
845
845
849
849
850
848
848
849
847
848
848
850
853
854
856
856
855
853
855
856
853
853
852
852
853
855
857
859
860
860
859
858
859
856
857
856
859
859
861
861
866
866
865
865
862
864
865
865
868
867
869
869
870
870
871
868
867
866
869
871
871
872
874
874
873
871
870
868
865
864
862
861
860
860
860
860
858
855
853
849
845
842
839
840
838
839
837
839
839
839
835
836
831
831
831
834
832
833
834
836
834
833
833
831
829
829
829
829
829
830
832
832
832
833
829
827
827
823
825
824
824
825
828
827
826
824
822
821
819
818
818
817
819
820
821
822
821
819
816
818
816
813
813
816
816
819
819
819
820
819
818
818
818
817
815
817
820
821
822
824
822
824
821
819
818
817
817
819
820
823
822
824
823
821
820
820
819
820
821
822
823
825
825
826
824
825
824
824
822
821
823
825
826
828
828
830
831
828
827
826
825
827
827
829
829
830
832
832
831
832
829
830
829
827
828
827
828
830
830
832
831
832
833
828
827
826
827
831
831
832
836
835
834
834
832
831
829
827
831
830
830
835
837
838
839
837
838
836
837
835
835
839
843
846
848
851
853
851
851
850
849
848
849
853
855
854
854
854
855
855
851
852
850
850
849
852
851
854
851
854
850
848
846
840
840
840
840
837
840
843
843
845
845
845
842
841
840
840
843
845
851
852
857
867
876
890
910
933
956
979
1002
1020
1033
1044
1049
1057
1061
1058
1050
1036
1020
1004
988
970
953
935
919
906
893
882
871
862
856
849
850
848
850
853
854
856
857
854
855
857
857
858
861
859
862
862
863
864
865
865
862
865
865
865
865
867
869
870
871
872
871
870
869
870
869
870
871
870
872
872
874
878
880
879
878
880
876
874
872
875
877
878
880
882
882
881
879
880
877
874
874
881
884
891
892
894
891
891
888
885
884
883
883
883
881
882
884
883
883
882
880
880
876
877
877
878
877
875
876
873
871
870
869
866
864
860
862
859
858
856
854
856
853
850
848
845
848
845
843
841
841
840
841
842
840
840
839
837
833
832
831
832
834
837
838
838
838
835
835
834
832
831
831
831
831
832
831
832
834
834
832
827
828
827
829
828
829
829
827
826
825
824
824
823
821
819
821
823
821
824
824
825
822
823
822
822
820
818
818
820
818
822
827
826
825
827
826
826
824
822
822
823
825
822
825
827
827
828
828
827
823
825
823
826
825
827
827
828
832
834
834
833
828
826
825
821
823
824
828
830
831
833
832
832
831
829
829
829
828
830
833
830
834
834
835
833
831
830
831
832
834
833
833
834
835
836
835
833
831
832
832
833
835
836
837
839
839
838
836
836
832
831
829
832
835
837
840
840
840
840
840
838
838
835
838
838
838
840
843
843
845
847
850
853
848
848
845
846
851
854
856
858
857
857
854
849
849
848
848
848
851
853
854
858
855
854
853
853
850
847
846
846
843
842
844
846
848
846
839
839
837
836
839
839
841
845
846
850
852
854
854
858
865
878
895
916
941
969
996
1018
1033
1046
1054
1062
1065
1064
1055
1041
1026
1013
997
985
969
949
929
911
896
885
876
870
864
858
855
854
853
858
860
861
859
858
856
854
856
858
860
859
861
861
862
863
862
860
861
860
862
862
863
866
865
862
864
863
864
863
861
860
862
861
864
871
874
872
869
868
865
867
866
868
870
870
875
875
876
875
875
874
872
874
873
871
872
877
880
880
879
877
880
880
879
879
879
880
883
882
885
890
891
889
889
888
888
886
881
882
880
884
887
889
891
891
888
886
884
880
876
877
877
878
877
875
875
872
872
870
869
866
863
858
858
857
858
861
861
858
856
854
852
850
850
852
854
856
857
856
857
857
855
852
853
856
851
852
852
855
853
855
857
859
857
856
854
854
855
855
855
852
849
851
850
851
853
854
853
851
850
847
848
849
849
849
849
849
850
848
845
845
844
846
846
846
849
851
850
848
847
846
844
844
843
844
845
844
843
846
845
843
845
843
844
846
845
843
845
844
845
846
847
846
841
842
841
842
841
842
846
847
846
846
845
844
842
841
840
843
846
845
846
843
842
843
843
845
846
843
840
840
842
840
841
842
842
844
844
844
844
844
845
844
844
843
844
845
846
848
850
851
849
848
848
847
846
846
846
848
848
851
850
849
850
847
848
849
850
846
850
853
854
856
857
855
855
853
852
849
848
850
851
851
852
856
857
858
857
857
860
859
860
863
865
864
868
868
864
867
867
868
866
862
862
861
865
866
867
870
868
867
865
866
863
859
859
859
861
865
865
867
865
864
860
857
850
849
851
851
855
858
858
860
859
857
856
855
856
855
858
860
865
872
881
895
908
934
959
984
1006
1027
1040
1049
1056
1063
1065
1063
1055
1042
1027
1013
993
973
954
934
919
904
897
891
882
874
870
860
860
854
856
860
861
864
869
870
870
866
861
862
862
860
861
861
862
864
867
868
867
865
866
866
863
864
862
863
864
864
866
867
866
868
872
869
870
868
868
868
868
868
870
871
875
873
871
871
872
871
870
870
872
874
877
879
880
882
879
878
875
874
874
873
874
878
879
882
882
881
881
879
879
878
877
878
881
881
882
883
881
882
883
881
875
874
870
869
869
866
865
866
866
867
866
864
862
860
855
853
851
850
849
851
851
848
847
844
842
841
839
839
840
845
845
844
844
842
840
838
841
841
838
837
837
837
839
842
843
842
838
836
834
833
831
831
834
832
832
834
834
834
831
830
828
827
825
828
829
830
829
827
826
831
830
830
828
827
822
821
822
823
827
825
825
826
828
827
825
824
821
821
821
820
824
828
830
831
831
829
828
825
825
823
823
824
827
828
829
831
829
826
826
826
826
826
829
829
830
832
830
830
828
826
827
824
826
827
829
832
832
835
835
832
831
831
833
830
831
830
831
832
832
834
833
837
837
834
833
828
829
828
830
833
837
840
840
835
836
836
832
832
834
835
834
832
832
834
834
837
838
836
835
833
831
833
836
841
838
841
842
839
838
838
836
833
836
834
837
839
838
841
841
842
845
847
850
851
849
848
850
852
850
854
854
854
854
853
851
848
844
845
849
851
855
858
857
859
855
850
845
844
845
845
843
846
844
846
846
844
844
841
841
842
842
843
843
841
844
847
847
845
846
848
849
852
852
857
866
878
897
920
944
972
993
1012
1023
1025
1032
1035
1038
1036
1026
1014
1002
980
959
936
918
903
892
880
874
869
862
855
850
846
847
844
844
845
848
849
851
851
853
854
854
853
854
854
858
856
854
852
852
849
850
853
858
859
859
858
856
857
856
858
861
863
864
866
862
861
862
862
865
861
861
860
858
859
860
862
863
863
864
862
865
866
868
867
865
866
867
869
872
872
871
869
868
869
869
869
873
877
877
877
877
879
877
875
875
871
869
870
870
875
878
877
878
876
872
871
867
868
868
871
868
869
870
868
867
861
860
855
850
851
850
850
849
849
849
849
848
846
844
841
840
836
835
835
837
840
841
843
843
842
839
835
834
834
830
833
835
835
835
835
833
832
833
829
828
828
829
830
830
830
829
829
830
829
826
825
824
821
819
819
819
820
823
826
826
822
823
824
821
819
817
812
813
816
815
816
821
822
822
819
819
818
816
818
818
819
821
819
822
821
819
820
818
817
817
816
819
819
819
821
826
826
829
829
829
827
822
823
821
821
822
824
822
825
828
830
830
827
825
825
825
824
824
825
828
831
830
831
829
825
824
824
825
827
832
834
836
833
832
832
828
827
829
829
830
833
834
836
836
836
834
831
829
829
829
831
831
833
834
834
835
834
834
833
831
831
830
829
830
834
835
837
838
836
836
837
837
837
836
836
835
841
845
850
850
851
849
846
844
846
848
851
854
855
855
853
856
855
854
854
854
853
853
853
853
855
853
854
854
855
854
850
849
845
844
843
843
846
850
849
851
852
851
846
846
847
850
851
851
853
859
865
873
883
898
913
933
953
975
995
1014
1024
1034
1044
1049
1055
1051
1040
1027
1011
992
975
956
939
924
912
902
891
880
868
861
854
852
855
858
860
864
866
868
865
867
865
865
864
862
862
861
863
867
867
868
870
868
869
867
867
869
869
871
871
871
874
876
876
879
878
879
875
877
875
875
875
877
879
880
883
880
879
878
880
880
881
881
881
880
884
884
884
883
882
884
881
881
882
882
883
883
880
885
888
891
891
891
888
886
884
886
890
890
890
890
890
886
887
886
882
882
881
882
882
882
883
880
881
880
875
869
865
866
867
864
861
863
864
862
860
856
852
850
848
846
845
844
844
847
849
851
849
849
847
845
842
839
838
842
843
843
848
849
847
845
845
843
841
841
840
841
843
842
843
845
841
839
838
836
836
835
834
834
834
833
833
834
833
833
831
832
831
831
829
825
827
828
831
831
832
832
832
832
830
829
827
828
829
831
832
831
831
832
830
827
828
826
828
830
830
831
832
833
833
832
831
831
831
828
826
827
828
829
833
833
833
834
833
831
829
827
827
828
829
831
835
837
838
838
836
835
832
830
830
828
831
834
836
837
836
836
834
834
831
831
830
833
836
839
840
839
837
835
832
830
832
833
835
837
838
841
839
840
842
839
837
836
835
833
836
839
840
838
840
842
842
843
842
840
839
838
839
837
841
843
844
846
847
847
844
842
840
838
841
841
841
843
844
845
845
846
850
851
852
855
856
857
856
853
855
857
858
858
859
858
857
855
854
854
854
855
855
857
859
858
857
853
853
853
851
850
850
849
849
851
848
848
846
847
844
848
848
848
850
850
850
850
851
853
854
859
862
866
876
887
901
920
940
962
981
998
1010
1019
1021
1025
1030
1033
1033
1026
1017
1003
985
965
941
921
904
888
882
875
867
859
858
853
852
856
856
858
858
856
856
855
856
860
860
860
861
860
857
861
861
860
861
860
860
861
866
867
868
868
868
869
870
867
865
866
864
867
869
873
872
874
872
869
871
869
869
872
874
874
878
878
875
876
874
874
874
871
872
874
878
878
880
881
880
881
880
881
880
879
879
882
885
886
887
887
887
886
883
883
883
881
881
879
879
880
881
880
881
878
877
876
873
870
869
869
868
866
863
863
862
861
859
855
851
850
848
846
848
849
849
847
844
843
842
840
837
839
838
839
843
843
842
843
843
840
841
838
836
838
838
838
837
834
838
841
839
839
839
837
835
830
831
832
828
831
835
838
839
835
835
831
828
826
822
821
822
827
830
832
831
829
828
824
825
824
824
824
825
827
828
827
827
827
825
824
823
823
826
825
826
827
827
831
828
828
827
827
825
824
823
822
823
825
829
832
831
830
830
829
828
826
826
828
828
830
831
832
833
831
830
827
825
822
819
823
830
832
832
834
833
832
829
827
826
827
828
832
833
833
832
835
833
832
834
833
831
830
830
832
833
831
835
835
837
837
835
835
833
832
833
832
832
835
837
838
837
838
837
837
836
833
834
831
832
832
833
836
836
837
836
835
837
836
836
835
836
837
838
839
840
841
840
838
838
837
840
842
847
849
851
848
846
847
849
847
848
848
852
852
850
852
854
855
854
853
853
853
850
850
848
849
850
849
848
847
847
845
844
840
838
835
838
838
839
845
846
848
849
850
847
847
848
849
849
852
862
871
886
906
930
955
977
997
1013
1024
1034
1039
1044
1049
1049
1044
1034
1017
1001
983
963
943
924
908
895
882
876
869
862
858
855
853
853
856
854
852
854
858
859
862
861
862
860
860
857
856
858
859
860
859
862
867
862
864
866
865
862
862
862
866
867
867
868
869
869
868
869
867
868
869
867
869
872
874
873
875
875
876
874
872
869
867
867
870
873
878
878
884
882
880
879
876
876
876
877
879
882
882
880
883
884
886
884
884
881
882
881
880
880
878
879
882
882
878
877
877
874
873
867
867
869
869
866
867
866
864
864
861
854
851
850
850
850
851
849
850
848
849
846
844
842
842
840
836
836
840
842
845
844
845
843
839
838
837
835
836
836
838
839
842
843
838
837
835
832
833
831
834
831
834
837
836
835
833
832
831
833
830
828
827
825
827
828
830
830
831
829
827
827
824
826
825
826
829
828
828
827
828
829
826
828
825
824
823
823
826
828
831
831
831
829
825
823
822
825
825
828
830
830
831
830
831
830
830
827
826
825
824
826
826
826
831
829
829
828
828
824
825
823
825
827
828
828
833
829
829
829
824
825
825
823
826
828
829
828
829
826
825
828
827
826
825
823
823
826
829
830
831
830
829
829
829
830
831
827
829
828
830
830
832
834
832
831
829
829
829
827
828
829
830
833
836
832
832
831
831
829
828
829
829
830
832
831
832
835
833
834
831
831
831
832
832
837
839
843
845
846
849
845
847
843
841
838
842
843
849
848
847
848
844
843
842
842
841
840
841
844
844
842
844
844
842
844
840
838
836
834
830
831
832
834
838
837
838
834
834
832
833
835
836
841
844
846
848
851
857
869
881
897
917
937
958
978
996
1010
1018
1022
1027
1029
1030
1023
1010
998
984
968
955
938
920
903
887
876
868
859
850
845
840
842
840
842
844
844
847
846
845
845
843
842
841
845
846
847
849
852
851
851
852
850
852
851
849
851
853
854
857
857
858
858
857
856
853
851
855
856
857
856
860
861
863
863
860
859
859
858
858
860
860
863
866
868
867
868
868
866
864
865
867
869
872
869
874
875
874
877
877
876
876
875
877
876
879
880
882
881
879
876
875
876
875
874
873
877
878
877
880
880
876
875
871
870
870
867
865
864
865
863
863
862
859
858
856
852
850
849
846
848
849
852
852
851
850
849
845
844
842
846
846
847
846
845
847
846
847
847
847
846
844
843
841
841
841
847
848
849
847
845
844
840
839
841
839
839
840
841
843
840
839
839
838
839
838
838
840
841
841
839
839
837
837
836
838
839
836
837
838
837
834
837
840
840
842
841
839
839
838
835
833
836
839
841
841
839
839
838
835
836
836
836
836
836
837
837
838
838
839
839
838
838
836
835
836
838
836
835
836
838
841
840
842
840
834
834
835
836
838
839
841
841
839
838
838
839
838
839
837
838
841
840
846
843
841
840
840
839
840
838
838
836
838
842
844
844
841
839
838
836
838
839
840
841
840
839
841
841
844
844
842
841
835
838
837
839
843
841
845
842
842
844
842
843
843
839
838
841
841
845
847
851
848
849
848
845
845
845
844
846
849
853
858
862
861
860
860
859
858
858
858
858
862
863
864
863
863
863
862
864
865
864
862
863
863
862
862
859
860
857
855
852
851
851
852
853
856
859
860
856
859
857
857
859
862
863
865
865
868
873
884
896
912
933
958
984
1004
1025
1042
1052
1058
1065
1070
1071
1066
1054
1038
1023
1007
988
968
947
931
916
903
891
882
876
871
868
872
871
871
872
876
877
878
878
880
878
879
880
878
877
877
878
881
882
885
886
889
889
889
888
887
888
891
892
893
892
896
896
897
898
894
893
891
891
891
890
893
896
899
901
900
899
897
898
899
896
898
900
903
903
902
902
899
899
900
901
902
901
900
902
905
907
908
909
908
909
907
908
908
905
903
902
903
907
910
910
909
904
900
898
895
893
898
899
899
898
896
896
892
890
889
888
883
880
878
877
878
875
876
875
874
871
872
867
865
864
864
863
865
864
864
864
864
864
863
865
862
863
860
862
862
864
866
869
867
866
865
861
858
859
856
859
859
860
863
864
863
860
855
857
855
853
852
855
856
857
860
856
854
855
853
851
849
848
851
850
853
855
855
856
856
856
855
854
853
853
853
853
853
854
855
857
857
857
856
854
852
852
851
856
859
860
861
862
859
860
857
856
855
853
855
858
859
859
862
864
866
866
862
860
858
857
859
861
864
866
864
867
866
863
862
861
859
858
863
866
869
870
872
870
868
866
865
864
866
864
867
865
866
866
866
866
865
868
867
868
865
864
865
868
870
871
871
871
871
867
868
867
866
864
866
867
868
871
871
874
875
871
871
869
866
866
867
868
870
870
871
874
870
872
869
869
868
867
866
868
870
873
877
879
881
881
881
877
874
874
873
876
875
878
879
878
878
876
874
873
874
875
877
875
877
877
875
874
870
870
868
867
863
862
859
857
858
862
864
865
866
865
864
863
861
862
862
863
865
867
874
880
886
894
908
924
949
973
994
1012
1030
1044
1053
1060
1062
1068
1062
1054
1038
1020
1002
986
969
953
937
923
911
901
887
877
866
859
854
856
857
861
865
869
870
869
867
869
867
865
864
866
869
867
871
872
871
871
870
869
866
868
870
872
876
877
879
880
876
873
873
874
875
872
872
872
874
875
876
877
879
881
882
881
877
878
877
877
879
879
881
881
882
880
882
882
883
882
882
883
885
886
887
890
894
891
887
886
881
883
886
888
889
892
894
893
891
892
888
886
886
886
885
881
879
882
884
884
882
881
877
876
872
870
867
868
868
868
867
867
865
861
859
858
855
852
853
854
855
855
856
856
853
851
850
849
846
845
846
848
850
851
857
858
856
855
853
849
848
848
848
847
847
848
849
850
850
846
846
846
845
841
839
839
840
843
844
844
840
840
836
834
835
835
833
835
837
839
839
837
836
834
835
835
837
834
837
834
836
833
835
834
837
836
835
834
832
832
832
830
833
832
833
836
837
836
836
834
833
834
832
830
832
835
835
839
841
837
836
834
833
834
836
835
836
838
834
836
840
840
838
839
838
835
835
835
835
839
841
840
842
840
838
839
836
835
835
834
835
835
839
842
841
839
838
837
838
836
837
838
839
839
841
841
838
839
837
836
835
835
835
834
833
836
836
838
838
838
835
836
838
833
834
835
837
839
841
842
841
838
837
838
831
828
831
835
836
841
840
845
843
842
842
840
841
843
842
844
847
848
849
850
849
849
848
848
846
848
845
847
849
851
851
852
851
849
851
848
846
848
846
844
845
845
846
847
848
847
844
840
836
833
833
835
837
837
839
840
841
843
841
842
843
840
841
843
846
852
859
874
889
910
928
950
970
986
998
1012
1022
1030
1039
1045
1044
1035
1020
1001
986
968
948
928
911
894
883
873
869
859
853
847
843
840
841
841
844
848
849
852
850
850
848
848
846
845
846
847
848
850
854
855
858
857
857
853
853
850
851
852
855
856
858
860
860
860
859
858
857
857
857
856
858
862
862
864
864
866
862
862
860
858
857
857
855
858
859
863
864
864
865
864
861
862
861
861
864
868
869
869
866
867
866
866
862
861
867
866
869
869
869
869
869
870
869
865
863
864
863
864
863
866
867
868
865
861
858
855
852
849
846
845
843
845
845
847
844
843
839
837
836
835
832
830
829
831
833
834
835
834
831
829
828
826
825
825
827
829
828
829
829
829
828
826
826
824
823
823
822
826
827
823
825
823
824
823
818
819
819
819
820
817
816
818
819
818
817
818
814
811
809
810
811
813
814
816
815
816
814
814
812
811
810
812
811
814
814
815
812
813
813
808
809
807
808
812
811
814
816
817
816
817
815
814
813
813
811
812
815
815
815
817
815
816
817
816
816
815
817
815
816
818
818
822
820
819
818
818
816
817
818
818
821
822
819
822
822
820
819
816
818
818
816
816
818
820
820
824
824
825
825
821
819
818
817
817
824
825
826
825
825
821
820
819
816
818
820
820
823
822
824
826
823
824
824
823
823
823
821
822
824
822
823
822
823
824
824
823
821
823
821
821
823
823
825
829
826
825
823
823
820
823
823
826
828
834
834
838
836
835
836
836
835
835
833
831
836
836
837
838
836
835
834
833
832
833
832
834
837
833
831
835
833
832
831
829
827
824
824
824
822
826
826
831
829
827
829
827
824
823
824
824
829
833
837
841
842
847
853
861
879
902
925
952
971
990
1000
1009
1014
1020
1020
1017
1003
983
965
