932
932
932
932
932
932
932
932
933
933
936
937
938
935
936
937
939
941
938
937
930
933
941
939
936
935
937
937
939
940
938
936
932
937
937
941
939
937
937
937
941
942
938
937
934
938
943
942
941
939
936
938
941
941
941
937
937
938
941
943
942
936
936
939
942
942
941
939
937
938
940
944
942
939
938
938
942
943
943
941
938
937
939
945
944
943
941
942
943
945
943
941
941
941
945
945
946
944
943
944
944
947
947
943
944
947
950
955
953
953
953
956
960
965
963
960
960
962
968
969
967
964
963
963
966
969
967
963
959
960
957
957
952
951
951
952
954
953
950
953
950
953
953
953
954
953
952
952
954
957
958
957
955
958
962
962
963
957
949
944
941
940
946
954
984
1042
1122
1216
1302
1375
1422
1442
1434
1368
1240
1112
984
896
905
926
932
925
921
924
931
936
938
949
955
963
966
974
974
970
967
968
973
977
973
972
973
974
975
978
978
974
972
974
979
981
980
976
977
977
982
985
984
981
981
982
985
985
982
980
981
985
989
991
987
986
985
985
989
990
992
990
986
989
994
997
996
997
995
998
1001
1003
1004
1004
1001
1005
1012
1014
1013
1014
1014
1018
1022
1024
1027
1023
1029
1031
1036
1041
1045
1044
1046
1050
1058
1065
1067
1071
1074
1081
1085
1093
1096
1100
1103
1111
1116
1123
1127
1131
1132
1140
1149
1155
1158
1162
1164
1170
1174
1181
1185
1184
1183
1185
1186
1182
1176
1168
1159
1150
1140
1134
1120
1108
1091
1081
1070
1058
1045
1032
1016
1009
1004
997
988
978
972
969
968
970
965
959
953
954
954
954
950
946
945
946
948
947
948
942
942
941
942
946
945
942
939
941
944
947
945
942
940
943
944
946
944
943
939
938
945
945
944
939
940
939
944
945
945
943
940
940
940
943
942
942
938
940
943
944
940
939
937
938
940
944
942
936
936
938
940
938
936
933
933
933
937
939
936
933
931
933
935
938
933
930
930
931
932
934
932
933
931
932
932
934
933
930
928
928
932
934
934
931
930
930
933
936
934
932
930
932
933
932
934
931
928
931
935
935
933
929
931
930
935
934
933
931
929
934
933
937
933
929
930
932
932
934
936
930
934
933
937
938
938
935
935
933
938
940
939
934
935
935
939
939
935
938
932
937
936
938
937
935
935
937
937
938
939
934
935
938
939
940
939
937
937
937
940
943
939
937
936
939
942
944
944
941
939
940
943
944
941
941
940
940
943
946
943
941
943
943
948
952
953
952
952
957
957
959
959
960
961
962
963
963
963
959
955
958
962
961
958
954
949
950
949
950
951
949
945
947
950
954
951
949
947
952
951
952
954
951
951
953
955
958
959
957
957
959
958
959
953
945
937
933
938
952
976
1024
1096
1194
1292
1370
1424
1446
1427
1365
1237
1109
981
892
903
925
934
931
924
925
928
936
948
961
967
970
971
972
976
976
977
970
973
973
976
979
980
977
977
978
983
982
984
981
978
981
984
984
984
982
986
986
987
990
992
989
988
993
995
996
996
991
994
991
996
998
999
996
995
997
998
1002
1002
1003
1004
1004
1010
1014
1015
1013
1012
1017
1020
1025
1026
1025
1025
1027
1035
1035
1039
1040
1042
1048
1051
1059
1061
1062
1062
1066
1075
1079
1086
1087
1092
1098
1107
1114
1119
1125
1129
1134
1145
1152
1157
1160
1162
1168
1178
1183
1185
1189
1192
1195
1200
1203
1196
1191
1188
1182
1176
1169
1157
1143
1127
1115
1103
1092
1080
1065
1049
1041
1034
1025
1011
1003
997
993
990
989
982
976
973
973
973
971
968
964
963
966
967
966
963
963
957
960
963
964
966
961
961
961
963
965
963
962
961
962
965
966
964
963
963
962
966
969
966
963
962
966
970
969
967
965
963
966
968
969
968
963
963
966
964
968
967
965
964
966
966
970
965
962
960
962
965
969
966
964
959
962
963
965
965
962
961
961
965
966
965
962
960
959
964
964
964
962
960
963
963
965
965
963
962
962
963
964
965
963
963
964
968
968
967
965
965
964
969
965
968
964
963
965
969
968
971
967
963
966
967
972
969
968
967
969
971
970
970
965
966
965
971
973
973
967
967
967
972
973
973
970
967
970
974
972
973
970
967
971
974
976
975
970
971
973
976
978
977
973
970
973
974
980
977
971
974
972
976
979
979
977
976
977
978
979
979
976
975
977
980
981
980
980
979
980
985
989
989
988
988
989
990
994
994
996
995
994
998
998
997
997
994
994
993
993
990
985
981
982
987
988
985
982
980
982
988
990
987
983
983
984
988
989
988
987
988
992
996
995
992
979
972
965
966
972
991
1030
1102
1199
1301
1383
1434
1446
1406
1302
1174
1046
918
926
950
958
960
956
956
958
963
976
992
1000
1004
1003
1000
1003
1005
1009
1007
1004
1004
1003
1010
1011
1012
1008
1005
1013
1016
1016
1013
1012
1012
1016
1018
1018
1016
1011
1016
1019
1019
1021
1020
1019
1022
1024
1028
1025
1024
1025
1027
1030
1033
1036
1031
1028
1031
1035
1036
1034
1035
1036
1039
1042
1044
1045
1045
1044
1047
1054
1056
1057
1058
1058
1060
1066
1070
1075
1074
1074
1078
1084
1092
1093
1094
1094
1101
1106
1114
1116
1119
1123
1130
1137
1142
1147
1149
1153
1159
1165
1171
1175
1177
1184
1186
1193
1200
1200
1203
1204
1208
1212
1212
1210
1203
1194
1188
1183
1175
1163
1149
1134
1126
1114
1104
1089
1078
1065
1052
1047
1042
1030
1021
1015
1010
1007
1005
999
992
989
987
986
985
983
978
974
974
978
977
976
974
973
971
975
977
976
971
970
971
975
976
976
973
971
972
976
976
973
969
972
970
973
973
971
972
972
972
974
977
975
971
971
973
973
974
974
971
972
971
973
974
974
971
971
970
972
972
972
970
966
969
970
971
969
966
964
963
965
967
967
962
962
962
964
964
965
962
960
960
963
963
961
956
956
954
958
959
956
952
952
955
957
957
958
955
954
954
955
955
954
954
953
955
957
960
956
953
951
950
953
954
955
954
952
947
952
956
951
950
952
951
951
955
950
950
948
949
951
953
953
948
948
951
952
953
950
950
948
949
951
952
951
945
946
948
947
951
950
948
945
947
949
951
950
950
947
949
956
957
960
959
957
957
959
966
966
965
961
960
962
962
961
958
954
952
952
952
945
941
936
939
940
944
943
937
938
939
944
944
945
940
939
941
944
944
944
942
943
946
947
948
942
937
926
923
922
922
930
953
1004
1083
1178
1272
1353
1398
1414
1394
1322
1194
1066
938
861
884
908
909
899
896
900
909
919
931
939
945
944
945
946
947
947
945
943
942
945
948
948
944
944
945
947
951
949
943
944
947
946
949
948
949
946
949
952
951
953
947
951
951
952
957
953
954
951
955
957
957
955
955
954
954
958
962
962
958
958
961
965
966
968
966
966
968
971
976
977
975
976
979
985
986
990
989
988
993
997
1004
1004
1006
1008
1012
1021
1026
1029
1030
1033
1042
1047
1055
1060
1060
1062
1070
1077
1084
1089
1091
1094
1102
1113
1116
1118
1122
1123
1130
1136
1144
1142
1143
1141
1143
1142
1140
1130
1121
1109
1100
1091
1080
1063
1048
1034
1022
1010
999
988
972
961
951
947
944
937
924
919
917
916
914
910
905
902
898
900
899
898
895
892
891
894
896
892
890
885
888
890
891
888
884
885
883
888
888
886
883
885
887
889
891
892
889
887
887
891
891
888
886
884
886
888
888
888
888
886
885
888
891
890
887
885
882
884
886
888
883
880
880
883
887
884
881
881
881
883
883
883
880
878
877
880
881
879
878
877
876
880
880
879
874
873
874
878
878
878
870
873
872
875
874
876
872
869
873
877
879
878
874
872
874
878
879
878
874
871
873
876
879
877
872
872
876
876
877
874
873
873
873
876
875
874
873
873
873
874
876
873
876
873
872
876
879
876
874
875
874
877
877
876
872
872
876
879
879
880
876
875
875
880
881
877
875
875
876
879
879
878
876
877
878
881
882
881
879
875
877
881
882
882
880
881
881
885
890
887
886
890
892
895
895
895
896
897
894
898
899
899
896
894
895
892
892
888
882
881
882
884
887
884
884
881
885
886
886
884
884
882
884
889
892
890
888
889
892
895
894
890
883
875
869
870
875
884
911
967
1058
1162
1264
1342
1384
1384
1325
1197
1069
941
814
832
856
864
860
857
856
862
870
883
893
896
897
895
899
900
904
900
900
900
903
907
907
905
903
904
905
911
908
908
907
906
910
914
915
915
911
912
913
919
917
919
915
914
917
921
923
924
924
922
926
929
932
933
932
932
936
940
944
943
945
946
949
955
958
959
961
964
968
970
980
984
987
989
996
1006
1011
1013
1017
1022
1027
1039
1047
1050
1053
1059
1067
1076
1081
1086
1087
1090
1100
1106
1114
1117
1120
1121
1126
1130
1132
1127
1120
1116
1110
1103
1093
1080
1065
1052
1039
1029
1016
1002
987
975
963
956
947
940
929
921
915
914
912
907
903
898
896
897
897
894
891
888
887
889
891
890
887
882
885
888
889
888
883
881
883
888
887
886
886
882
883
887
889
888
886
883
885
892
891
889
888
886
888
893
895
891
890
884
890
893
895
894
890
889
889
892
895
892
891
888
889
892
895
893
893
890
891
895
895
895
892
887
890
894
896
894
889
891
892
893
894
893
890
887
888
892
893
892
890
890
891
891
891
892
890
887
890
894
896
892
891
889
892
893
895
894
890
892
894
896
894
894
892
889
893
897
898
897
893
891
892
897
898
897
893
895
899
899
902
898
896
895
897
898
902
902
900
898
900
900
901
903
900
897
900
903
906
904
897
899
902
904
905
903
903
902
904
906
905
904
901
901
902
908
911
908
904
905
907
908
910
910
905
907
908
910
910
909
909
905
907
912
913
910
908
908
909
909
913
912
908
910
910
913
916
915
912
912
916
919
922
921
919
922
927
930
933
929
928
929
932
936
935
933
928
927
930
931
935
927
924
922
921
924
921
920
918
918
920
923
926
921
922
919
921
926
925
925
923
921
927
928
932
931
929
927
930
931
925
920
910
906
907
915
930
959
1008
1083
1177
1276
1355
1412
1431
1418
1356
1238
1110
982
872
869
891
902
903
898
896
901
902
914
924
936
940
939
942
944
945
944
942
943
944
947
951
948
947
947
948
952
953
952
948
950
952
956
955
956
954
952
956
959
962
960
956
957
958
962
962
962
959
958
961
967
966
966
965
963
967
971
973
974
970
968
971
976
978
978
977
974
979
984
985
984
983
982
986
991
995
997
993
996
1000
1006
1009
1009
1008
1011
1016
1021
1026
1027
1029
1032
1038
1044
1051
1054
1058
1060
1068
1077
1084
1088
1090
1091
1097
1106
1115
1118
1123
1127
1133
1143
1151
1154
1155
1156
1164
1169
1175
1176
1171
1166
1167
1166
1158
1148
1139
1128
1117
1106
1099
1086
1072
1055
1042
1037
1026
1012
1000
989
982
977
970
966
956
952
949
948
946
940
939
935
935
936
937
934
929
924
927
929
928
928
925
924
927
929
929
928
925
923
924
929
930
927
924
926
927
929
928
930
927
927
928
931
932
929
929
926
931
931
932
932
929
927
929
933
934
932
931
927
930
932
933
933
929
929
927
931
934
932
928
925
928
931
933
927
926
925
928
930
930
930
925
923
923
928
929
930
927
923
926
927
928
928
925
922
924
926
928
926
926
925
929
929
930
928
925
924
926
930
928
931
928
926
927
930
930
928
927
927
928
931
933
933
929
928
929
933
934
929
929
926
928
932
934
932
928
926
930
935
936
935
931
930
930
932
936
936
934
931
931
936
936
932
932
931
933
938
938
937
933
930
937
939
942
941
935
934
935
938
941
941
937
934
937
940
942
943
939
938
938
940
943
943
941
941
941
942
947
946
942
939
942
943
943
944
939
939
943
944
943
945
944
944
945
951
953
953
950
950
956
960
961
959
955
953
958
960
968
965
960
957
960
964
965
961
958
954
955
956
956
953
949
947
949
950
953
952
949
950
950
953
952
953
951
948
949
954
954
958
955
955
956
961
960
962
957
953
950
945
943
937
934
939
961
1006
1081
1174
1269
1353
1414
1439
1427
1358
1233
1105
977
901
901
918
924
922
921
922
924
929
930
936
946
958
968
972
967
969
968
970
975
974
973
972
974
978
980
976
978
975
978
982
984
984
981
981
982
987
988
987
983
983
986
990
992
991
988
988
991
993
997
994
994
993
993
995
998
995
994
995
1000
1003
1005
1002
1004
1001
1006
1009
1012
1012
1012
1010
1017
1022
1023
1023
1026
1026
1029
1033
1035
1036
1037
1038
1044
1051
1055
1058
1056
1063
1067
1076
1081
1084
1086
1086
1097
1106
1113
1115
1119
1125
1132
1140
1147
1150
1153
1157
1165
1174
1178
1183
1184
1187
1194
1200
1202
1203
1200
1197
1195
1195
1191
1180
1168
1158
1146
1140
1127
1114
1095
1081
1069
1059
1047
1035
1023
1012
1004
1003
997
990
983
976
973
975
974
971
966
964
964
965
966
963
959
957
959
961
961
961
958
957
954
960
960
961
957
956
955
959
961
961
959
959
959
961
962
963
959
959
960
961
963
963
959
960
962
964
966
963
961
960
963
964
967
966
962
962
962
964
967
965
962
963
960
964
965
962
956
958
959
961
964
963
962
957
960
962
962
962
957
957
955
959
963
960
956
956
956
959
959
957
958
956
958
958
960
960
956
957
958
961
962
959
956
953
955
957
959
959
959
956
958
963
963
959
955
955
956
960
959
957
955
958
956
958
961
960
959
960
961
961
964
963
960
961
962
964
962
963
959
958
961
962
966
965
963
960
963
965
965
966
963
966
970
973
975
977
973
976
975
979
982
981
979
979
983
990
987
985
981
978
981
982
980
975
971
967
969
969
970
968
963
961
965
967
969
968
966
962
966
969
970
969
967
967
968
970
974
974
974
972
974
975
970
962
953
945
947
956
978
1020
1091
1192
1302
1394
1454
1471
1428
1320
1192
1064
936
908
931
943
940
940
940
944
948
957
970
979
982
979
976
975
981
983
985
984
981
983
986
988
989
989
984
984
990
991
992
990
988
990
989
995
997
995
993
994
994
995
1000
998
997
997
1000
1003
1003
1004
1002
1000
1004
1010
1011
1014
1012
1010
1016
1018
1020
1022
1023
1022
1024
1030
1034
1035
1037
1038
1043
1048
1053
1054
1058
1061
1066
1073
1078
1079
1084
1085
1092
1101
1110
1112
1119
1124
1132
1141
1147
1150
1154
1158
1166
1174
1183
1187
1191
1194
1200
1208
1210
1211
1207
1205
1204
1201
1195
1184
1170
1156
1145
1132
1120
1108
1093
1075
1063
1055
1044
1032
1022
1009
1004
1001
995
989
979
977
976
975
975
970
965
962
960
962
963
957
956
956
956
956
958
958
954
954
956
955
959
958
954
954
953
954
957
957
953
951
955
957
960
956
956
953
955
959
958
954
957
957
957
958
958
957
956
951
952
958
960
958
955
953
956
955
958
958
953
953
950
955
956
955
951
951
953
955
953
950
947
945
948
951
952
947
946
944
948
951
949
947
944
943
942
947
950
949
944
941
943
944
948
947
943
942
941
947
946
946
943
942
942
947
946
945
941
941
940
945
943
943
939
939
942
943
942
941
941
937
936
941
942
942
935
936
936
939
943
941
939
939
938
941
944
943
940
938
939
943
943
941
937
934
938
939
939
939
935
935
936
938
941
938
935
934
936
940
942
936
931
935
937
941
939
940
937
932
937
939
940
939
936
935
934
935
939
935
935
933
933
938
935
935
933
935
939
943
944
945
943
943
943
947
948
952
949
947
948
950
948
950
947
941
942
943
942
937
932
932
932
936
936
933
932
932
933
937
938
937
932
933
932
937
939
939
934
936
938
942
940
935
925
917
912
916
927
961
1022
1111
1226
1326
1392
1426
1420
1367
1258
1130
1002
874
870
890
900
906
901
901
902
909
920
931
936
940
936
933
937
941
939
939
937
935
939
940
943
941
939
940
941
945
942
943
943
940
942
947
946
944
942
942
943
949
950
947
948
945
948
951
952
949
947
947
948
954
955
954
954
955
958
959
961
960
959
959
963
965
965
968
967
969
970
976
978
978
977
975
981
989
991
993
991
994
1001
1005
1008
1011
1012
1013
1022
1031
1034
1038
1041
1047
1052
1061
1068
1075
1078
1080
1087
1097
1104
1109
1111
1116
1125
1130
1135
1139
1142
1146
1151
1153
1154
1148
1140
1137
1130
1122
1112
1098
1081
1067
1056
1045
1034
1017
1006
990
981
972
967
958
947
941
938
934
934
929
925
920
923
923
921
919
916
913
913
915
914
914
911
910
913
912
914
914
908
908
909
913
910
912
908
910
911
912
912
910
910
909
910
913
914
914
909
908
912
914
917
916
910
908
912
916
917
914
913
912
912
913
915
916
914
912
913
912
913
914
910
908
911
913
915
912
907
909
910
914
913
910
908
905
908
912
911
910
906
904
909
911
910
908
905
904
906
909
909
909
906
906
908
907
910
909
906
907
908
910
909
913
909
908
909
911
913
911
910
908
908
911
914
913
909
907
907
910
911
908
907
908
911
911
913
911
909
910
912
913
914
910
910
911
908
914
914
914
911
908
911
915
917
915
913
910
913
917
918
915
912
913
913
919
919
914
914
915
917
921
921
920
916
915
915
921
923
921
917
916
918
922
923
919
920
920
920
923
922
924
921
923
923
923
923
923
920
919
924
929
930
928
929
929
932
937
938
938
937
937
934
940
944
944
940
939
937
943
946
945
940
936
937
938
936
934
931
930
934
937
934
934
932
930
932
937
938
936
935
934
937
941
942
942
942
939
941
942
938
929
918
915
920
936
966
1021
1099
1205
1308
1389
1435
1446
1413
1324
1196
1068
940
883
893
908
913
914
911
911
915
923
932
946
951
953
951
950
954
954
960
959
956
956
956
961
961
961
960
957
960
964
965
963
962
960
962
967
970
967
967
966
965
970
970
971
968
965
971
974
978
975
973
974
975
977
979
979
977
981
983
985
985
987
985
985
989
992
995
994
993
993
996
1003
1005
1005
1003
1003
1008
1012
1015
1016
1018
1016
1022
1028
1032
1035
1032
1036
1042
1049
1054
1057
1059
1063
1068
1074
1081
1087
1089
1092
1103
1112
1119
1123
1127
1132
1140
1149
1158
1160
1164
1168
1170
1177
1186
1182
1184
1180
1182
1180
1173
1167
1156
1140
1133
1123
1110
1095
1083
1068
1057
1046
1036
1021
1007
1000
994
991
987
978
972
967
966
965
961
958
955
951
954
955
954
953
950
947
946
952
950
950
944
946
945
947
948
948
946
945
947
949
951
949
947
945
948
948
947
950
947
948
949
951
951
951
946
947
950
953
954
953
949
948
949
951
952
952
950
949
951
952
953
951
948
947
949
953
952
950
948
948
950
952
951
950
944
943
944
948
950
949
946
947
947
952
950
948
945
948
951
953
952
951
949
947
950
951
953
950
948
946
948
949
953
948
946
947
949
953
951
951
948
950
950
953
951
954
951
948
952
954
956
953
952
952
955
955
957
956
953
950
953
958
958
953
952
954
957
959
959
958
956
953
958
959
959
960
954
957
959
961
963
961
960
954
958
963
963
960
958
961
963
967
967
967
966
967
968
972
975
976
974
973
974
979
981
981
982
980
979
981
982
980
976
976
974
978
975
973
968
966
966
970
970
971
967
969
971
972
974
972
970
966
971
975
976
974
970
974
977
980
981
980
973
968
962
961
957
954
957
972
1010
1072
1160
1253
1337
1399
1439
1449
1411
1309
1181
1053
925
917
939
952
947
939
943
949
950
955
958
966
979
985
992
988
986
986
986
991
994
990
989
991
993
997
998
998
994
993
998
1001
1001
998
999
995
997
1002
1001
1003
1000
999
1002
1007
1007
1008
1002
1004
1006
1009
1009
1008
1006
1007
1012
1013
1016
1015
1013
1013
1016
1020
1019
1021
1020
1018
1021
1023
1027
1027
1027
1027
1027
1035
1038
1037
1037
1037
1042
1045
1052
1048
1051
1048
1055
1057
1062
1064
1063
1064
1074
1077
1083
1084
1089
1093
1101
1107
1112
1120
1121
1124
1132
1140
1147
1152
1154
1158
1165
1171
1178
1180
1183
1185
1191
1199
1207
1209
1208
1206
1209
1210
1204
1195
1190
1178
1171
1164
1154
1141
1125
1112
1103
1092
1078
1064
1051
1039
1031
1025
1020
1011
1002
996
994
992
988
982
977
976
975
977
976
974
968
969
970
972
971
968
965
965
967
968
967
967
963
963
963
966
967
965
963
961
964
967
970
966
965
964
963
967
969
969
966
966
966
969
970
967
963
966
968
970
967
968
964
965
966
970
969
967
963
963
964
968
968
965
960
959
962
964
965
963
962
960
959
960
961
961
960
955
960
961
961
959
957
956
958
962
957
957
954
953
957
957
960
958
955
954
955
957
958
956
954
956
953
958
958
956
954
952
956
956
956
957
952
952
953
957
959
956
954
956
963
966
970
968
966
966
967
972
976
976
976
978
979
982
982
976
966
966
967
968
971
969
964
960
960
960
960
953
952
956
956
958
956
957
955
955
957
960
958
958
956
955
957
960
962
961
958
959
963
964
963
960
954
945
939
936
938
946
965
1009
1075
1166
1256
1334
1390
1428
1440
1419
1339
1211
1083
955
892
905
924
926
917
918
922
928
930
934
943
952
959
966
964
964
962
958
963
966
965
966
964
967
967
970
971
967
965
967
970
969
971
971
967
967
972
975
978
976
971
974
972
977
977
979
975
974
977
980
981
983
982
980
983
986
988
990
984
987
987
992
994
994
993
993
996
1001
1004
1001
1000
1000
1001
1007
1011
1011
1011
1012
1015
1020
1024
1023
1026
1027
1031
1034
1038
1040
1042
1046
1051
1057
1062
1066
1066
1073
1078
1086
1092
1100
1101
1105
1111
1118
1130
1136
1138
1145
1153
1160
1167
1171
1171
1175
1184
1189
1196
1193
1193
1190
1187
1186
1180
1168
1155
1143
1129
1119
1105
1090
1073
1057
1046
1036
1027
1015
1005
996
987
986
980
974
966
961
961
960
959
957
949
950
950
949
950
949
945
945
946
945
946
947
944
942
944
947
949
947
946
943
944
949
948
945
947
946
947
948
950
948
947
946
949
950
952
946
946
945
949
951
952
950
948
950
949
952
953
950
949
947
947
953
951
948
943
946
946
949
947
946
943
946
946
945
948
946
943
943
945
947
947
947
943
940
941
947
949
946
942
937
941
942
947
946
942
942
944
946
945
941
938
939
940
944
945
943
940
941
939
944
944
944
942
939
945
943
947
946
944
941
945
946
947
945
940
940
943
943
944
942
942
946
945
946
947
944
945
945
947
953
956
956
957
958
958
959
960
963
962
966
965
970
974
971
967
967
967
966
965
961
957
957
952
954
953
952
946
943
948
950
949
946
944
947
950
951
951
950
948
949
952
954
954
950
952
954
956
961
961
959
954
948
946
942
939
938
943
965
1012
1086
1189
1291
1374
1428
1450
1422
1326
1198
1070
942
888
916
930
928
922
922
928
939
946
954
960
967
967
970
969
971
967
967
965
972
974
972
970
972
972
976
976
975
976
975
977
979
979
975
976
977
976
979
982
981
980
978
980
983
986
985
983
981
986
988
991
987
988
988
990
992
996
993
993
992
996
1000
1002
1002
998
998
1003
1008
1009
1008
1009
1009
1014
1019
1021
1022
1022
1025
1029
1034
1037
1038
1039
1040
1045
1050
1052
1057
1059
1060
1067
1074
1079
1084
1086
1089
1098
1106
1113
1118
1120
1127
1131
1139
1149
1151
1152
1158
1164
1170
1177
1182
1179
1185
1189
1193
1194
1190
1184
1178
1175
1168
1161
1148
1135
1123
1109
1101
1088
1073
1058
1048
1034
1031
1021
1011
1001
995
990
989
982
977
971
969
965
966
965
961
959
955
957
958
958
956
952
952
952
955
954
953
951
947
949
956
954
953
953
949
954
954
956
954
954
950
956
957
957
958
954
956
956
958
959
956
952
953
953
958
958
956
954
953
957
959
960
956
952
954
957
959
959
957
955
954
956
956
958
954
951
951
952
953
954
952
952
950
951
951
951
952
952
950
950
953
949
949
948
946
949
952
954
951
950
947
948
953
951
951
949
945
947
948
952
951
949
947
945
947
952
948
946
947
949
950
949
946
947
946
948
951
953
948
948
946
949
950
952
949
950
948
949
951
952
949
947
946
949
952
952
952
950
948
949
951
952
951
950
948
950
952
956
952
946
946
950
950
952
951
948
950
952
953
954
950
946
947
949
954
955
954
952
951
954
956
957
957
953
951
957
959
962
961
959
962
966
972
970
967
966
968
973
976
974
969
967
966
967
973
970
969
961
960
959
963
960
958
956
956
956
959
961
959
958
956
959
960
962
962
958
958
960
965
965
965
964
965
966
964
955
949
942
942
953
986
1054
1151
1261
1357
1425
1452
1423
1331
1203
1075
947
899
928
941
935
930
932
939
947
955
960
968
974
976
975
974
968
971
973
975
979
977
976
976
979
980
982
979
978
977
981
981
984
984
981
981
982
983
987
984
983
982
985
986
990
988
988
985
989
994
995
992
990
990
994
996
999
998
995
996
999
1002
1003
1004
1000
1003
1005
1009
1008
1011
1011
1010
1014
1020
1020
1021
1021
1022
1026
1029
1033
1032
1033
1035
1041
1048
1050
1051
1048
1052
1061
1068
1071
1074
1077
1084
1091
1099
1105
1109
1113
1115
1126
1133
1140
1145
1147
1154
1162
1168
1174
1175
1176
1181
1184
1191
1194
1192
1185
1183
1174
1176
1168
1157
1140
1131
1120
1108
1095
1081
1061
1049
1039
1030
1020
1007
997
991
988
985
983
975
969
966
963
966
967
964
959
957
957
957
960
956
954
953
956
955
957
952
952
952
953
955
953
954
951
950
951
958
956
953
951
952
950
953
951
953
952
952
952
955
956
952
951
949
952
955
957
954
950
949
954
952
955
953
948
949
953
952
956
952
950
948
950
954
952
950
945
943
949
952
954
950
948
946
949
952
951
949
948
944
949
949
950
946
943
942
944
948
951
947
947
944
945
948
948
947
940
942
944
947
947
945
945
942
946
947
949
947
944
943
946
946
947
946
942
940
943
946
945
942
941
943
942
946
946
944
942
940
941
946
949
948
945
947
948
950
949
949
944
944
946
949
947
946
944
945
947
947
949
946
940
945
945
950
949
949
944
945
947
952
952
953
953
951
959
960
962
963
959
960
962
968
967
966
961
961
962
965
967
963
957
956
957
956
955
953
952
949
950
953
956
953
950
949
949
953
956
953
950
946
952
953
957
957
956
957
959
961
957
948
937
932
932
942
962
999
1062
1155
1259
1348
1408
1429
1413
1348
1226
1098
970
892
897
917
925
925
923
919
922
925
934
946
959
964
964
963
963
966
967
967
966
964
966
971
972
970
972
970
972
974
978
978
976
974
976
982
982
981
979
978
981
982
981
979
982
982
986
987
986
986
987
985
989
992
991
991
992
993
995
997
997
999
1000
998
1003
1005
1007
1009
1008
1008
1012
1017
1021
1020
1021
1024
1029
1032
1038
1037
1039
1043
1050
1054
1060
1063
1063
1068
1077
1086
1090
1097
1099
1104
1110
1119
1128
1133
1135
1140
1147
1155
1161
1166
1168
1173
1177
1184
1186
1184
1182
1178
1175
1170
1162
1151
1133
1123
1110
1099
1083
1066
1053
1038
1024
1017
1008
998
988
978
976
975
974
967
963
959
960
960
960
952
948
950
948
950
952
950
948
946
948
951
952
949
949
945
946
949
949
948
946
946
945
953
953
952
948
948
952
954
957
953
952
950
954
955
956
954
952
950
953
956
957
956
952
950
948
952
955
953
948
949
949
951
952
950
946
945
947
951
952
948
946
946
946
951
952
951
949
946
949
950
951
947
945
944
947
949
947
949
945
946
945
948
949
942
943
944
947
949
948
946
944
944
946
949
947
947
944
945
946
950
950
947
943
944
948
949
948
950
943
942
946
951
953
953
951
952
956
962
964
961
959
960
963
967
970
970
969
966
969
966
966
960
956
957
957
958
956
952
947
948
944
948
946
946
947
942
945
951
951
950
948
947
949
951
953
951
948
952
953
957
956
959
952
945
941
937
932
932
934
953
996
1067
1167
1267
1352
1406
1431
1408
1316
1188
1060
932
884
913
930
927
918
917
922
931
941
949
955
960
963
964
965
965
962
961
961
968
970
968
964
965
966
971
972
970
967
967
969
974
975
975
973
973
971
977
979
975
977
977
978
980
985
984
983
980
982
984
986
986
983
986
986
990
993
993
990
991
993
998
1000
1002
995
999
1005
1008
1010
1010
1009
1012
1017
1024
1025
1027
1028
1032
1036
1043
1044
1051
1051
1053
1063
1069
1076
1083
1082
1089
1101
1108
1113
1116
1119
1127
1135
1145
1148
1154
1157
1161
1168
1177
1179
1180
1181
1180
1182
1179
1174
1165
1154
1143
1134
1122
1111
1096
1079
1066
1053
1045
1035
1020
1011
1000
993
989
984
978
970
964
963
963
959
956
950
949
949
952
951
949
947
943
946
947
947
943
942
941
942
945
945
943
942
942
945
944
947
947
945
942
945
949
947
949
945
943
947
949
952
949
948
947
948
948
949
947
945
945
944
949
951
950
946
946
945
946
949
947
942
943
943
944
945
947
942
944
943
946
946
948
943
944
943
947
946
945
943
941
942
944
946
943
939
941
940
944
944
941
940
940
941
945
945
942
941
941
944
947
945
944
942
939
942
944
941
941
938
937
940
941
942
942
937
938
941
942
944
942
941
941
943
946
946
940
941
941
942
941
941
945
943
943
943
942
947
945
944
941
941
946
947
944
943
941
943
943
944
944
941
936
941
944
946
940
941
942
944
943
945
943
942
939
942
945
946
945
944
944
943
943
947
942
944
941
943
946
947
944
943
944
945
948
950
949
947
947
950
957
958
958
959
957
956
960
963
961
957
955
956
961
965
959
955
953
951
952
950
948
947
945
947
948
949
949
946
948
949
951
954
954
950
950
951
956
957
956
951
953
951
952
943
934
929
930
950
987
1051
1134
1232
1324
1394
1426
1417
1347
1219
1091
963
880
903
924
922
919
917
923
933
938
948
955
960
961
962
959
957
957
959
963
965
963
958
957
961
963
964
961
961
963
965
968
969
963
965
965
965
969
970
967
966
966
968
974
975
974
971
973
975
980
979
978
974
975
980
984
986
981
981
982
986
991
991
990
986
988
989
997
996
999
996
996
1003
1004
1008
1008
1010
1008
1016
1020
1024
1025
1024
1028
1032
1040
1044
1046
1046
1049
1058
1063
1069
1072
1076
1078
1085
1093
1099
1103
1106
1110
1117
1127
1132
1133
1137
1138
1145
1155
1160
1162
1164
1164
1168
1171
1177
1173
1167
1161
1154
1151
1145
1134
1120
1110
1098
1090
1077
1064
1047
1036
1029
1020
1012
1003
993
981
978
976
971
967
961
957
954
954
950
948
944
942
943
945
942
940
938
936
938
940
939
935
933
936
938
940
940
939
934
934
938
938
939
937
934
935
935
937
938
935
934
935
938
938
938
936
935
935
936
938
938
937
933
935
937
939
941
937
933
931
935
937
937
936
934
934
935
936
936
935
929
930
933
934
934
935
928
928
931
931
933
929
927
927
930
932
932
932
931
932
931
933
934
934
929
927
931
933
933
930
927
929
929
932
933
928
926
928
930
931
931
932
930
929
929
933
933
930
927
930
928
933
933
931
928
928
930
930
932
930
927
927
929
932
932
931
928
924
929
929
929
929
929
931
931
933
933
931
928
928
929
929
930
931
930
928
931
934
933
933
931
932
933
936
935
935
931
933
931
935
935
934
932
929
933
936
936
933
929
929
930
935
934
935
931
929
933
936
936
934
934
930
935
938
937
933
933
931
936
937
938
936
932
933
937
939
937
936
930
932
935
939
939
936
933
931
936
937
938
940
936
935
940
942
943
945
944
946
949
951
953
952
949
949
952
952
954
955
951
946
950
956
957
952
950
946
949
951
948
944
939
939
942
944
943
941
941
940
942
946
947
945
944
940
948
948
949
948
945
945
948
953
954
952
945
941
935
932
927
927
928
944
976
1031
1113
1203
1290
1368
1419
1444
1431
1368
1256
1128
1000
903
896
909
915
910
911
914
921
920
926
934
945
955
959
962
958
959
960
963
965
962
964
960
966
969
967
964
966
964
964
970
971
971
966
966
970
972
973
970
970
972
972
977
977
976
973
973
978
980
978
978
978
978
980
982
984
983
981
981
987
987
989
987
986
989
992
995
997
994
993
993
995
1000
1003
1001
1002
1005
1009
1013
1014
1014
1013
1015
1018
1021
1026
1029
1030
1030
1034
1038
1043
1045
1050
1055
1061
1069
1072
1076
1079
1083
1090
1098
1103
1106
1109
1115
1121
1127
1135
1140
1143
1148
1150
1158
1164
1170
1172
1176
1178
1183
1187
1186
1181
1179
1178
1175
1169
1158
1146
1136
1127
1116
1106
1091
1075
1060
1053
1045
1032
1019
1008
999
996
993
984
975
969
965
965
966
959
957
953
950
949
950
952
947
944
939
944
945
947
941
941
939
942
944
945
943
939
937
939
943
943
943
938
939
941
944
944
942
940
937
938
946
944
945
943
942
942
942
944
944
941
939
942
945
944
943
941
939
943
944
946
944
940
941
940
943
945
942
936
935
941
944
943
941
940
936
940
940
942
938
935
935
938
941
941
938
937
937
936
939
937
939
936
936
936
939
937
935
930
933
934
933
938
935
933
934
938
940
937
938
934
933
937
939
939
936
933
933
937
938
937
935
935
933
936
937
938
935
933
931
934
938
938
938
933
933
937
939
938
936
935
935
936
940
938
937
935
935
938
941
939
937
935
937
937
942
941
938
936
938
940
941
940
942
939
939
939
942
944
943
938
938
939
943
945
941
938
941
942
948
949
945
944
947
951
955
957
956
953
957
960
964
960
956
957
959
961
964
964
959
954
951
952
952
951
947
944
946
947
949
947
948
947
947
950
952
951
952
949
947
951
954
955
953
952
950
955
957
956
950
938
933
931
933
939
955
993
1061
1157
1259
1341
1393
1413
1396
1332
1222
1094
966
894
897
917
928
925
921
918
923
924
936
944
954
959
964
966
970
968
970
969
967
968
972
973
973
971
971
975
976
977
975
973
974
975
978
979
979
978
979
981
982
984
981
981
977
982
985
984
982
983
985
986
991
990
990
988
989
989
996
996
992
991
993
999
1003
1004
1001
1001
1001
1004
1009
1011
1011
1014
1014
1015
1019
1023
1021
1022
1024
1026
1031
1034
1036
1040
1040
1046
1054
1055
1058
1058
1062
1072
1076
1083
1086
1088
1093
1098
1105
1113
1116
1121
1128
1134
1143
1148
1150
1152
1157
1165
1170
1177
1178
1178
1180
1182
1185
1183
1174
1165
1158
1152
1141
1130
1115
1100
1085
1075
1063
1052
1039
1025
1016
1008
1003
997
988
980
973
972
970
971
969
962
960
958
964
962
960
956
954
956
956
956
954
952
952
952
955
954
952
947
950
951
956
957
956
955
955
956
958
957
958
957
955
959
960
961
960
958
957
958
961
960
960
954
955
957
958
960
960
954
955
957
959
960
959
953
953
952
958
956
952
949
952
954
954
953
953
950
950
953
954
954
950
946
948
949
952
950
952
949
946
947
948
948
948
944
944
947
949
950
949
946
949
949
949
948
948
946
946
948
950
951
950
947
948
949
949
951
948
947
946
952
952
951
952
950
947
950
953
950
950
950
949
950
950
953
952
950
948
947
953
954
952
949
949
952
955
955
954
954
952
959
962
966
966
964
961
962
963
966
969
965
964
964
969
967
967
964
964
962
963
960
955
951
946
949
951
950
949
947
949
950
953
952
951
950
949
954
953
954
955
951
951
951
958
958
956
954
948
948
945
940
934
932
937
957
992
1053
1135
1221
1308
1377
1417
1420
1377
1274
1146
1018
890
885
909
920
919
917
919
924
927
933
942
951
960
960
957
955
953
959
960
962
959
955
959
962
964
965
962
959
957
961
964
965
962
962
963
964
967
967
962
962
961
964
966
970
964
965
964
966
969
971
970
969
970
971
977
977
971
973
972
975
979
982
980
977
978
981
987
985
982
982
984
989
993
996
994
994
995
1001
1004
1009
1008
1010
1011
1017
1023
1026
1023
1028
1032
1037
1046
1047
1052
1053
1056
1066
1074
1077
1078
1080
1085
1093
1101
1108
1111
1116
1121
1126
1135
1138
1141
1142
1147
1153
1157
1160
1155
1155
1153
1151
1150
1139
1127
1113
1102
1093
1082
1066
1053
1039
1025
1018
1006
999
989
973
968
962
960
956
948
941
939
939
937
933
931
924
924
925
927
926
924
922
920
922
923
920
919
913
916
919
921
920
919
917
917
919
920
919
918
915
916
919
921
921
920
914
919
918
921
920
922
916
920
921
923
925
922
919
920
920
923
921
919
918
916
917
921
920
918
919
916
920
923
921
919
918
917
919
920
922
920
914
915
916
921
920
917
914
914
916
918
918
917
914
914
914
915
919
917
912
913
918
919
917
917
914
912
916
919
920
918
913
913
915
917
916
917
915
914
915
918
920
914
913
915
914
920
919
915
914
914
916
919
920
919
917
917
918
921
923
921
915
916
918
923
925
922
919
920
918
923
924
923
920
919
923
922
920
922
919
918
921
924
925
923
920
921
924
924
925
921
923
922
924
927
928
929
923
925
930
930
929
927
924
925
927
931
930
930
926
924
930
933
933
929
930
930
929
934
932
932
934
935
939
945
947
948
945
945
948
950
952
952
952
951
950
954
954
952
954
954
951
950
950
948
943
942
942
947
943
941
939
941
944
946
949
946
944
945
950
952
953
951
950
948
953
958
957
955
949
946
943
939
935
932
940
960
998
1061
1145
1238
1323
1390
1433
1433
1391
1287
1159
1031
903
897
919
933
928
921
928
934
939
945
954
961
968
970
972
970
967
969
970
974
977
975
973
974
977
980
979
979
979
977
982
984
984
981
979
980
980
984
985
985
983
983
987
989
991
991
990
988
991
993
996
995
994
996
999
1003
1004
1003
1001
1001
1006
1007
1010
1008
1009
1009
1012
1017
1022
1018
1021
1023
1028
1034
1037
1036
1036
1039
1042
1050
1052
1055
1052
1059
1066
1075
1078
1082
1082
1086
1095
1102
1110
1115
1119
1126
1134
1142
1147
1152
1152
1158
1165
1173
1177
1183
1184
1187
1192
1197
1198
1194
1190
1182
1180
1175
1165
1148
1131
1120
1110
1099
1084
1073
1059
1048
1037
1033
1025
1015
1006
1000
998
994
993
988
985
981
983
982
978
978
976
972
972
974
976
973
967
968
972
973
970
968
966
966
967
970
971
969
969
965
970
974
971
971
969
970
967
971
974
972
968
966
970
972
974
972
969
968
968
970
972
973
970
971
970
970
970
970
967
967
969
970
972
969
968
966
966
969
969
969
966
966
967
970
968
967
964
964
966
968
967
965
962
964
966
967
969
966
963
962
964
969
967
965
962
960
964
966
966
966
963
963
967
968
966
967
965
964
965
969
967
966
963
963
965
967
966
964
962
959
962
967
966
965
962
962
963
966
966
964
961
963
962
966
965
966
962
962
964
965
966
963
961
959
962
965
964
964
962
961
958
962
966
963
962
957
963
966
968
964
963
961
965
966
965
961
962
961
964
967
966
966
964
962
964
968
967
965
962
966
963
968
969
966
963
962
965
968
967
967
965
967
967
971
974
976
976
976
979
983
984
983
981
983
984
986
985
984
983
982
982
980
979
975
972
968
968
973
972
968
969
969
972
978
978
977
971
969
975
979
979
977
977
978
978
979
983
977
969
964
958
959
961
977
1005
1076
1181
1296
1394
1451
1453
1401
1273
1145
1017
898
922
944
950
947
944
947
952
962
973
983
986
988
987
989
989
994
992
990
988
988
993
997
997
995
996
996
998
999
998
999
996
998
999
1003
1004
1004
1003
1002
1008
1012
1011
1011
1008
1008
1009
1011
1011
1008
1008
1007
1011
1019
1019
1018
1016
1018
1019
1023
1027
1027
1025
1028
1032
1032
1034
1035
1036
1038
1043
1049
1051
1051
1052
1055
1063
1067
1072
1074
1076
1078
1088
1095
1099
1105
1109
1118
1125
1134
1142
1148
1152
1159
1171
1180
1183
1194
1197
1201
1207
1210
1208
1197
1187
1177
1163
1153
1136
1120
1101
1084
1070
1059
1046
1032
1020
1014
1007
1003
995
992
988
983
982
981
981
976
972
974
976
978
978
972
972
972
973
976
977
973
973
972
974
977
975
974
972
972
972
977
978
975
976
973
976
979
981
979
976
976
979
982
984
979
976
979
979
984
983
979
976
976
976
980
980
979
978
975
979
978
980
980
975
974
978
979
981
977
974
976
976
980
979
975
975
974
975
980
980
976
972
974
976
978
979
977
975
975
977
980
979
978
974
975
978
983
983
980
977
978
981
986
982
982
978
978
983
986
987
982
982
979
982
985
984
982
981
982
985
988
988
984
980
984
984
991
988
991
986
986
989
990
992
992
987
989
992
995
994
992
987
988
992
999
995
996
995
994
1000
1003
1005
1003
1001
1005
1008
1012
1012
1010
1010
1011
1015
1022
1019
1015
1011
1013
1015
1017
1017
1010
1006
1004
1006
1010
1006
1003
1001
1001
1002
1007
1007
1006
1004
1005
1010
1013
1009
1011
1010
1008
1012
1018
1016
1015
1013
1014
1011
1010
1001
992
985
990
1008
1041
1096
1171
1261
1346
1416
1455
1457
1422
1331
1203
1075
956
958
979
989
986
983
987
990
993
997
1008
1022
1031
1037
1039
1038
1038
1038
1043
1043
1043
1041
1041
1042
1048
1046
1049
1046
1046
1049
1053
1052
1052
1050
1050
1055
1057
1060
1059
1056
1056
1061
1063
1064
1062
1060
1062
1064
1067
1067
1068
1064
1064
1066
1071
1073
1067
1069
1071
1073
1080
1079
1078
1076
1075
1080
1083
1082
1082
1078
1082
1086
1091
1093
1091
1091
1094
1096
1102
1101
1101
1099
1106
1109
1112
1117
1115
1117
1118
1121
1125
1126
1131
1130
1133
1143
1155
1161
1166
1172
1178
1186
1193
1197
1199
1199
1207
1212
1221
1225
1231
1232
1239
1249
1251
1257
1257
1252
1254
1256
1257
1261
1254
1248
1246
1243
1238
1232
1217
1207
1197
1185
1180
1167
1157
1141
1131
1123
1116
1107
1093
1083
1078
1074
1070
1065
1059
1053
1048
1048
1050
1046
1041
1039
1037
1034
1039
1040
1038
1038
1035
1037
1040
1041
1037
1036
1036
1037
1042
1041
1040
1037
1039
1045
1051
1053
1052
1051
1058
1069
1085
1108
1144
1198
1273
1351
1411
1444
1454
1433
1355
1227
1099
1003
989
1007
1014
1002
987
973
967
967
966
968
972
978
986
995
1009
1023
1036
1041
1036
1032
1032
1038
1039
1039
1037
1036
1037
1041
1044
1042
1039
1039
1039
1043
1046
1042
1042
1041
1038
1042
1045
1042
1043
1043
1041
1046
1049
1049
1047
1045
1047
1052
1054
1054
1051
1050
1052
1055
1059
1059
1058
1057
1059
1062
1065
1065
1062
1066
1068
1073
1076
1079
1081
1080
1080
1086
1093
1094
1095
1097
1101
1107
1110
1114
1118
1118
1121
1127
1135
1138
1141
1143
1147
1152
1159
1164
1165
1168
1173
1179
1185
1186
1187
1183
1184
1181
1177
1168
1157
1147
1137
1128
1119
1107
1093
1081
1070
1065
1060
1053
1043
1037
1031
1029
1029
1023
1021
1014
1012
1014
1016
1013
1010
1006
1006
1006
1008
1009
1005
1004
1002
1006
1008
1008
1005
1003
1002
1005
1007
1005
1004
1000
1002
1004
1007
1005
1002
998
1000
1004
1004
1001
1001
997
995
1001
1004
1004
1000
997
997
999
1001
1000
998
993
993
997
1000
1000
994
993
991
994
994
997
993
988
989
990
993
991
989
985
986
986
991
988
984
983
984
984
988
988
984
979
979
983
987
983
980
980
979
980
982
984
983
980
981
981
987
981
983
979
978
980
986
983
980
977
977
977
984
980
978
978
979
977
978
978
978
975
975
979
979
981
975
974
975
977
979
979
977
976
975
977
978
978
978
975
975
977
980
981
977
975
976
978
977
976
974
972
972
973
977
979
976
974
973
977
978
976
973
969
971
973
978
978
975
972
972
974
976
978
974
973
970
971
974
972
970
971
971
975
977
975
974
970
970
972
974
973
972
969
969
972
973
972
972
971
970
971
973
971
968
968
969
969
974
973
969
967
967
970
973
972
973
973
973
978
981
983
978
979
975
983
985
982
985
980
979
980
984
985
980
976
975
974
974
972
966
961
961
966
967
966
964
962
960
965
968
966
966
963
963
966
970
970
967
967
965
967
968
966
955
946
940
935
943
955
981
1032
1112
1206
1292
1354
1393
1403
1383
1317
1194
1066
938
881
899
922
928
926
923
923
925
935
947
955
962
962
960
963
966
962
966
961
961
963
967
966
966
962
962
965
970
966
967
964
963
965
970
968
964
962
964
967
965
970
967
964
965
969
974
969
967
965
965
970
970
972
968
967
967
970
975
971
975
970
969
975
978
979
979
979
978
981
982
983
982
981
984
987
992
994
993
994
994
996
1001
1002
1002
1001
1004
1010
1013
1014
1016
1017
1020
1024
1027
1031
1035
1033
1039
1043
1047
1052
1053
1055
1057
1063
1067
1072
1075
1076
1076
1082
1089
1091
1094
1097
1103
1108
1113
1115
1113
1111
1113
1114
1115
1112
1106
1097
1093
1089
1086
1073
1065
1054
1043
1037
1029
1023
1013
1001
994
986
983
978
971
963
955
952
949
946
938
935
932
934
935
933
929
926
922
925
927
925
924
921
918
919
922
919
916
914
915
917
919
915
913
912
909
912
914
912
909
910
908
911
913
911
908
907
905
907
909
909
906
901
904
907
908
907
903
903
900
905
906
903
901
898
899
900
903
902
897
896
895
896
896
898
895
894
894
894
897
896
894
893
892
894
897
895
892
891
890
894
896
895
892
888
891
892
894
895
892
889
890
890
892
891
889
888
888
890
893
894
889
886
886
888
891
888
886
884
881
888
889
890
885
885
886
888
890
891
888
882
884
887
889
889
885
884
887
886
890
890
887
886
885
884
891
889
888
887
882
887
888
890
887
886
885
888
889
886
884
886
882
888
888
886
887
885
883
887
890
891
888
883
883
886
892
888
888
886
886
887
887
889
890
886
885
887
890
891
889
887
885
887
891
890
888
883
883
887
891
890
887
889
892
892
897
901
901
901
900
904
908
907
904
901
902
904
907
902
899
893
889
893
894
890
890
886
889
891
895
894
892
888
889
892
894
893
892
890
893
895
901
900
900
895
892
886
884
876
871
875
890
926
989
1076
1174
1267
1335
1368
1368
1319
1208
1080
952
830
838
862
869
863
861
864
868
874
882
890
898
906
908
906
906
904
904
908
911
909
908
906
907
910
914
914
913
909
912
914
919
918
917
916
915
918
921
919
915
916
916
920
923
922
920
919
920
925
927
926
927
924
923
927
931
931
931
928
930
932
937
937
937
934
937
941
945
945
944
946
946
952
955
958
955
956
959
965
969
969
970
971
975
979
986
986
986
986
991
997
1003
1007
1008
1009
1016
1022
1028
1032
1035
1037
1041
1048
1056
1059
1061
1064
1068
1075
1080
1083
1085
1086
1093
1100
1102
1105
1102
1098
1095
1092
1092
1084
1072
1060
1047
1039
1031
1019
1004
992
979
973
967
956
946
937
929
927
921
920
914
908
905
903
903
903
900
895
893
895
897
895
894
890
891
892
892
893
893
889
890
891
893
894
892
892
890
893
895
893
894
891
892
893
895
897
894
892
889
893
897
898
893
893
893
896
899
898
893
894
892
896
898
899
897
891
893
895
898
896
893
893
890
893
898
895
892
887
887
892
895
893
892
889
890
888
897
892
892
888
890
895
895
894
894
891
890
889
893
892
892
891
892
893
896
894
895
892
889
894
898
895
893
890
890
894
897
897
894
889
889
891
897
893
894
893
894
897
898
897
893
891
892
895
899
898
895
892
893
894
897
898
896
894
894
893
897
897
898
893
894
898
899
899
897
898
898
899
903
902
899
897
897
899
904
903
901
900
898
900
903
903
901
899
899
901
904
902
900
902
900
907
905
910
908
906
907
910
913
915
915
914
914
918
924
921
918
916
916
919
923
920
916
911
908
909
910
909
907
906
905
908
909
913
910
908
905
909
911
913
911
909
910
916
918
916
918
913
909
907
905
899
894
897
916
967
1050
1147
1243
1321
1368
1376
1339
1232
1104
976
855
854
878
888
886
881
880
886
891
898
903
915
922
926
930
928
928
926
926
929
933
935
934
930
930
935
936
937
936
935
935
937
941
941
938
936
935
941
945
945
945
944
942
945
950
950
947
945
944
947
953
950
949
949
950
953
956
956
955
956
958
962
966
965
963
962
964
964
974
975
975
976
976
979
985
985
988
987
987
992
1001
1002
1003
1008
1010
1016
1021
1026
1029
1032
1036
1043
1051
1054
1057
1060
1064
1075
1080
1082
1085
1088
1095
1100
1106
1109
1112
1116
1117
1126
1132
1133
1132
1130
1127
1126
1125
1117
1107
1093
1083
1074
1067
1053
1039
1024
1013
1005
996
986
976
966
956
954
949
942
937
931
928
927
929
923
918
914
917
918
919
918
915
913
913
913
916
916
916
911
911
915
915
917
914
910
912
913
917
916
915
913
914
918
918
918
916
915
915
918
920
918
917
917
915
917
920
920
914
914
914
918
920
919
917
916
914
913
920
919
917
912
913
917
917
914
916
914
915
916
917
918
913
911
912
913
916
916
913
908
908
912
915
915
910
910
911
911
915
913
914
910
906
911
915
914
909
908
909
913
914
915
913
912
911
913
917
914
915
909
907
911
914
917
914
914
913
916
920
919
913
913
915
918
919
917
917
914
915
916
919
916
914
915
916
917
918
919
918
916
913
918
920
921
921
920
918
920
925
923
921
916
917
919
923
920
919
916
919
922
927
923
921
923
921
930
934
934
932
933
934
936
937
938
939
938
938
938
940
937
937
936
934
937
938
934
928
925
922
925
926
928
927
924
924
925
930
929
924
923
921
929
929
928
929
924
927
932
937
935
934
933
931
930
924
915
911
909
918
939
983
1054
1146
1238
1323
1378
1405
1393
1334
1216
1088
960
878
880
898
901
898
899
903
908
907
914
925
934
943
944
945
944
941
944
947
947
946
941
943
944
950
947
948
945
946
950
952
953
952
951
948
951
956
956
955
952
949
955
959
958
958
955
957
959
961
960
956
956
954
959
966
965
964
965
962
968
971
972
966
968
970
974
979
981
979
979
979
984
991
991
990
989
992
994
1002
1005
1005
1007
1009
1014
1019
1022
1024
1025
1027
1036
1041
1047
1050
1055
1058
1066
1073
1078
1082
1087
1091
1101
1109
1113
1114
1120
1122
1131
1139
1143
1145
1146
1149
1154
1158
1156
1150
1144
1137
1132
1123
1116
1101
1086
1075
1064
1054
1040
1025
1011
1001
990
985
977
968
959
951
950
948
945
942
936
934
935
938
936
931
928
929
929
932
928
928
926
926
927
931
929
924
927
928
930
933
929
928
929
927
928
933
933
933
931
930
931
935
933
933
929
931
935
936
936
933
933
931
934
935
933
929
928
928
931
933
933
932
927
927
930
928
930
929
928
927
930
930
930
927
924
925
928
929
929
928
924
925
927
929
928
926
923
923
930
933
932
925
926
929
930
933
932
927
928
925
928
933
931
929
928
928
927
930
929
928
927
927
933
931
929
927
925
922
927
931
931
927
924
923
927
931
930
927
925
925
927
931
931
928
928
927
930
933
929
928
927
928
931
935
932
931
928
929
932
934
933
929
927
929
931
934
935
933
931
931
933
934
933
932
932
932
934
937
935
934
930
930
935
938
937
934
933
935
938
943
942
941
939
940
945
950
949
946
941
945
951
954
952
949
948
946
949
953
951
947
945
943
942
942
941
939
937
935
940
941
941
939
938
936
940
943
944
940
941
939
943
945
950
947
945
943
947
948
945
937
928
923
924
932
943
972
1029
1115
1215
1310
1382
1423
1430
1401
1328
1200
1072
944
877
890
912
917
913
911
913
917
924
935
945
952
953
954
957
960
958
955
955
956
960
962
959
958
958
958
963
963
964
962
960
963
964
965
963
960
961
960
963
969
966
965
965
965
969
972
969
966
967
968
972
973
973
977
974
972
976
975
979
978
978
978
980
985
986
985
986
988
990
994
994
995
996
996
1003
1005
1009
1008
1007
1010
1014
1022
1024
1024
1027
1028
1036
1039
1044
1046
1050
1054
1060
1069
1070
1074
1080
1085
1092
1100
1106
1108
1108
1119
1124
1131
1135
1137
1141
1146
1153
1160
1164
1165
1166
1163
1163
1164
1157
1147
1136
1122
1113
1105
1089
1073
1058
1048
1038
1026
1012
1005
995
986
982
979
972
966
958
956
954
953
951
948
943
942
943
945
945
943
939
937
938
942
944
940
939
937
941
941
941
940
939
936
938
940
943
941
938
937
938
945
944
941
938
937
941
945
942
941
940
940
940
942
946
942
939
939
940
944
944
942
938
938
938
940
940
938
934
935
935
939
940
935
933
933
935
938
937
936
934
934
934
934
936
934
931
928
933
937
936
933
930
931
935
937
934
928
924
927
929
935
933
931
929
926
933
932
930
929
930
927
931
935
934
931
930
929
928
934
932
928
928
926
929
931
932
926
925
927
929
933
932
930
929
927
929
932
931
926
924
923
927
928
928
927
922
923
926
928
927
929
923
926
929
930
932
928
928
924
929
931
930
928
924
927
931
933
932
927
926
927
931
930
931
929
926
927
925
929
928
929
927
927
930
933
932
929
928
929
930
933
932
928
926
927
931
934
931
930
928
926
929
934
934
930
929
929
932
935
935
930
931
933
934
938
936
936
935
940
943
946
948
943
941
946
950
950
948
945
941
943
945
948
946
941
934
931
933
936
935
933
930
929
932
937
938
935
930
932
934
937
936
935
937
937
940
944
941
937
939
936
934
933
925
918
916
920
935
970
1030
1118
1222
1315
1383
1421
1419
1362
1240
1112
984
869
883
907
911
905
906
911
914
921
928
937
943
951
950
949
946
946
948
953
952
950
948
950
949
955
957
951
947
949
955
960
960
958
957
959
962
962
962
959
959
959
959
963
964
962
961
962
966
967
967
967
967
966
970
972
970
972
967
970
975
977
977
976
976
976
981
986
986
986
984
988
990
997
996
994
993
995
1002
1007
1008
1010
1010
1011
1015
1021
1022
1025
1024
1028
1034
1040
1043
1045
1048
1051
1058
1066
1073
1074
1078
1083
1091
1099
1103
1108
1111
1115
1122
1131
1137
1138
1140
1143
1151
1157
1160
1159
1161
1162
1164
1165
1163
1159
1151
1143
1137
1130
1120
1106
1092
1085
1076
1069
1056
1042
1029
1020
1014
1008
997
992
984
980
977
974
972
967
962
958
959
962
959
955
955
956
958
956
956
955
955
950
953
959
960
954
953
953
958
961
962
957
956
956
958
962
961
961
959
960
962
968
968
964
963
963
967
969
970
968
966
967
967
975
973
972
969
969
971
975
972
971
969
970
971
977
974
972
970
968
972
977
974
970
968
970
974
976
976
971
972
973
975
979
977
974
974
974
977
980
979
978
978
975
974
977
979
977
974
977
981
981
980
981
979
977
980
982
983
982
981
980
982
985
983
985
982
983
984
989
992
986
987
986
987
990
990
987
988
987
990
992
992
991
993
991
994
996
996
996
994
991
995
999
999
997
994
993
996
1000
1001
999
997
998
999
1005
1004
1002
1001
999
1005
1008
1005
1005
1003
1000
1006
1010
1010
1007
1005
1006
1009
1014
1010
1009
1007
1008
1011
1013
1017
1014
1013
1011
1012
1020
1020
1019
1017
1018
1021
1027
1028
1027
1028
1029
1032
1035
1036
1037
1035
1033
1034
1033
1035
1036
1035
1031
1032
1034
1032
1027
1022
1023
1025
1029
1028
1027
1027
1027
1028
1032
1032
1031
1028
1029
1032
1036
1036
1035
1032
1033
1036
1037
1037
1036
1031
1028
1023
1023
1019
1015
1016
1035
1073
1137
1224
1316
1397
1454
1491
1489
1434
1320
1192
1064
975
989
1011
1013
1009
1007
1012
1015
1020
1023
1034
1042
1052
1057
1058
1055
1055
1057
1059
1063
1063
1063
1059
1062
1063
1069
1066
1066
1066
1067
1069
1072
1069
1069
1069
1071
1073
1074
1076
1073
1071
1076
1075
1081
1079
1080
1078
1081
1082
1085
1083
1085
1083
1084
1088
1090
1090
1089
1089
1089
1090
1094
1093
1093
1092
1092
1100
1104
1104
1102
1102
1105
1110
1115
1114
1112
1114
1116
1120
1127
1128
1129
1129
1133
1139
1145
1146
1150
1149
1149
1157
1166
1170
1172
1173
1179
1187
1194
1196
1201
1201
1208
1217
1222
1229
1231
1232
1236
1247
1251
1253
1257
1257
1261
1267
1272
1275
1274
1272
1268
1267
1261
1255
1244
1232
1219
1215
1206
1194
1181
1167
1155
1143
1138
1128
1114
1105
1097
1093
1092
1085
1077
1069
1066
1067
1067
1062
1057
1051
1054
1057
1056
1056
1051
1051
1051
1053
1054
1052
1048
1048
1048
1048
1051
1052
1048
1047
1049
1052
1054
1054
1050
1046
1047
1053
1054
1054
1052
1050
1051
1055
1058
1057
1053
1052
1054
1055
1055
1055
1053
1051
1052
1055
1052
1051
1048
1043
1050
1053
1052
1051
1048
1046
1047
1045
1051
1048
1047
1044
1040
1043
1045
1045
1043
1041
1040
1042
1046
1045
1041
1038
1039
1041
1043
1041
1040
1037
1037
1038
1043
1040
1041
1037
1037
1041
1042
1039
1037
1037
1037
1038
1041
1041
1038
1038
1037
1038
1040
1038
1034
1034
1035
1037
1040
1037
1030
1031
1033
1034
1038
1038
1036
1031
1033
1032
1039
1039
1035
1032
1032
1036
1039
1036
1032
1032
1033
1036
1038
1035
1034
1028
1033
1036
1038
1036
1035
1032
1036
1037
1042
1043
1041
1041
1043
1045
1049
1046
1044
1045
1047
1053
1054
1052
1048
1043
1044
1047
1048
1045
1040
1039
1035
1035
1036
1033
1028
1029
1028
1029
1030
1029
1029
1027
1026
1031
1034
1032
1029
1028
1028
1031
1033
1035
1033
1033
1031
1035
1038
1034
1026
1018
1011
1007
1010
1013
1025
1049
1102
1178
1265
1346
1412
1456
1469
1461
1405
1285
1157
1029
955
971
995
1001
993
991
991
997
1003
1011
1019
1026
1033
1039
1041
1041
1040
1036
1037
1038
1043
1043
1039
1039
1041
1044
1045
1043
1040
1041
1041
1045
1046
1046
1043
1042
1044
1046
1047
1048
1044
1042
1042
1045
1047
1049
1046
1044
1044
1048
1053
1051
1048
1044
1048
1051
1054
1055
1053
1047
1052
1055
1057
1058
1058
1053
1052
1060
1061
1062
1061
1061
1062
1067
1068
1067
1070
1069
1072
1076
1082
1082
1084
1084
1082
1090
1097
1099
1097
1101
1104
1108
1114
1118
1120
1124
1127
1134
1143
1144
1149
1150
1156
1163
1170
1173
1175
1179
1183
1189
1196
1202
1205
1206
1209
1214
1220
1220
1217
1214
1212
1208
1203
1195
1184
1171
1160
1147
1135
1122
1108
1095
1080
1072
1066
1056
1043
1034
1026
1022
1016
1014
1005
1001
995
997
997
996
990
985
983
985
984
985
982
980
978
978
979
976
973
974
975
974
979
980
977
975
974
980
980
975
971
972
973
976
978
979
974
975
973
975
977
979
975
974
973
977
981
978
977
973
971
975
975
974
971
967
969
968
972
969
966
963
965
968
970
968
964
963
960
962
966
965
962
959
958
960
963
961
959
956
957
958
960
961
959
956
955
955
962
960
955
954
953
955
956
955
951
948
950
953
955
954
950
947
948
952
955
954
950
948
951
952
954
954
949
947
948
951
954
952
950
947
945
948
950
952
947
944
943
945
949
948
945
946
944
946
950
947
945
941
943
944
947
947
944
944
943
945
945
943
944
942
937
940
946
944
944
939
939
944
946
946
943
939
940
947
947
946
946
945
945
949
954
956
953
953
953
957
962
961
958
954
952
951
959
958
956
947
946
946
947
947
941
936
938
940
945
944
941
935
937
938
943
941
941
935
939
940
945
943
942
941
942
942
945
942
934
923
917
917
925
938
969
1025
1113
1212
1300
1371
1409
1406
1358
1249
1121
993
867
870
899
910
908
905
905
905
911
926
936
943
945
942
941
947
949
950
949
946
946
951
953
951
952
950
950
950
953
954
952
952
952
954
956
957
956
954
955
955
961
958
956
955
955
958
963
962
961
958
958
957
964
964
963
960
962
967
972
973
971
968
967
971
974
979
978
979
981
985
988
987
987
989
991
998
1000
1003
1005
1007
1010
1016
1023
1025
1026
1029
1035
1039
1049
1052
1055
1058
1065
1075
1081
1088
1091
1093
1098
1106
1113
1115
1119
1125
1130
1136
1142
1144
1146
1144
1148
1149
1148
1144
1134
1124
1113
1103
1099
1085
1069
1055
1038
1032
1023
1011
998
986
975
970
965
958
947
941
936
937
935
931
927
923
921
921
922
922
919
916
914
915
916
919
913
910
911
915
916
916
912
911
911
912
919
916
915
912
911
913
915
917
914
912
914
913
918
914
913
911
912
914
917
918
916
911
911
915
918
916
913
912
909
910
911
913
908
905
908
911
914
914
907
909
909
909
913
909
907
906
909
909
911
912
909
907
906
907
909
910
906
902
903
907
906
907
907
906
905
906
909
908
907
903
904
905
906
909
907
902
904
906
908
907
904
903
900
903
907
906
902
902
904
903
905
906
903
900
902
903
906
907
906
903
903
905
904
907
901
902
902
905
907
906
904
902
902
907
909
909
906
902
903
907
908
912
908
905
904
905
908
907
906
900
900
907
910
910
907
904
903
907
911
912
906
905
905
909
910
911
910
906
907
910
915
913
914
911
916
920
926
923
921
921
924
928
930
929
924
921
921
921
926
922
920
915
912
911
914
915
910
910
910
913
917
916
913
911
912
913
918
917
914
912
913
914
921
922
920
919
917
915
912
904
899
895
906
930
975
1049
1141
1240
1326
1381
1407
1384
1304
1176
1048
920
857
878
894
892
891
887
893
897
904
910
919
928
932
932
928
928
929
931
933
933
931
931
933
934
939
938
937
934
935
939
940
941
939
937
938
941
943
942
941
940
943
946
948
948
947
946
948
951
954
952
953
954
955
955
961
962
964
962
965
970
974
977
978
977
981
985
992
994
997
998
999
1008
1015
1019
1021
1022
1027
1036
1046
1048
1053
1057
1062
1069
1075
1087
1086
1090
1094
1103
1110
1114
1120
1122
1126
1133
1139
1142
1144
1141
1143
1144
1144
1141
1132
1122
1111
1103
1095
1084
1071
1053
1045
1033
1027
1011
1001
988
983
974
969
962
953
947
941
941
939
940
934
927
927
928
929
926
925
922
921
922
926
926
919
920
920
923
925
926
922
920
919
920
929
927
923
924
924
925
930
926
925
924
925
925
929
927
928
926
925
929
933
933
930
931
929
932
934
933
932
926
931
932
937
935
933
928
931
933
938
937
933
931
930
935
936
935
933
932
931
934
937
935
934
932
932
934
937
936
933
932
933
936
940
939
937
934
934
937
939
940
939
937
937
940
940
942
939
937
937
939
943
943
941
939
939
942
944
945
944
940
943
943
945
943
944
940
941
945
946
947
947
942
941
945
948
950
947
943
943
947
952
951
945
943
946
948
951
949
951
949
945
949
952
950
949
946
949
954
953
954
953
950
947
950
954
955
951
953
954
954
957
960
958
956
958
959
960
963
958
957
954
960
965
962
961
959
961
962
965
966
962
961
963
964
973
971
972
971
973
976
979
977
972
974
975
979
981
980
976
975
977
975
980
977
972
969
969
970
970
971
970
966
969
974
975
974
970
971
973
976
977
975
974
975
973
977
982
983
981
978
978
978
972
967
957
954
959
973
1003
1053
1132
1221
1311
1387
1433
1443
1406
1306
1178
1050
929
926
946
955
952
951
953
952
955
958
967
979
989
995
996
989
992
997
1001
1000
998
998
1002
1005
1007
1005
1002
1002
1005
1007
1008
1011
1008
1002
1006
1008
1011
1014
1011
1009
1012
1014
1019
1019
1017
1013
1015
1017
1022
1021
1019
1018
1018
1024
1027
1025
1027
1025
1028
1029
1032
1033
1033
1031
1034
1037
1039
1041
1039
1041
1040
1044
1049
1049
1049
1046
1053
1052
1060
1060
1059
1063
1067
1070
1074
1078
1077
1080
1084
1096
1100
1107
1108
1108
1113
1122
1127
1133
1134
1135
1142
1148
1157
1162
1163
1164
1167
1176
1182
1185
1187
1191
1196
1201
1209
1208
1212
1211
1211
1214
1215
1210
1202
1193
1183
1182
1173
1165
1151
1137
1127
1119
1110
1101
1083
1071
1065
1060
1053
1047
1039
1029
1026
1023
1019
1019
1011
1007
1005
1005
1008
1005
1001
998
996
996
1001
999
997
992
992
993
998
995
993
992
994
994
996
995
992
990
992
995
998
997
996
993
995
996
997
997
994
992
995
999
1000
999
997
994
995
998
1001
1000
996
997
997
997
1001
999
998
991
993
999
1001
1002
999
996
997
998
1002
1001
996
995
995
998
998
997
995
995
994
994
997
999
994
993
990
994
996
999
996
993
991
994
997
992
992
987
988
992
994
994
992
988
987
992
993
996
995
990
989
992
996
997
993
989
987
990
995
994
994
991
991
994
997
994
995
990
991
993
994
997
994
993
991
992
990
997
995
993
990
994
998
998
995
991
994
992
994
996
995
996
995
997
999
1000
997
998
1001
1003
1006
1010
1006
1006
1009
1012
1015
1014
1011
1011
1016
1016
1016
1012
1013
1008
1010
1010
1011
1008
1003
998
998
1000
1002
999
997
995
997
1000
1001
998
998
997
997
999
1004
1001
998
998
997
1003
1007
1007
1005
1002
1003
999
995
988
981
977
984
1006
1048
1111
1202
1296
1378
1436
1461
1444
1373
1245
1117
989
936
954
970
968
969
969
970
973
975
980
992
1006
1013
1013
1013
1009
1013
1014
1016
1016
1015
1012
1013
1015
1016
1017
1014
1014
1013
1016
1019
1019
1018
1019
1018
1020
1023
1023
1024
1018
1023
1026
1029
1029
1024
1025
1027
1029
1031
1030
1028
1024
1024
1032
1037
1032
1033
1033
1035
1038
1039
1039
1040
1034
1041
1043
1049
1049
1048
1047
1049
1056
1060
1062
1063
1059
1062
1067
1071
1075
1076
1077
1080
1086
1091
1093
1096
1100
1102
1108
1117
1124
1128
1128
1133
1142
1150
1155
1157
1162
1167
1173
1180
1183
1181
1186
1188
1195
1203
1205
1207
1204
1207
1211
1210
1203
1195
1187
1177
1174
1165
1153
1142
1126
1115
1105
1096
1084
1070
1060
1047
1041
1037
1029
1018
1013
1007
1004
1006
999
993
989
985
986
990
987
984
980
979
982
980
978
976
975
976
976
980
978
975
975
975
978
979
978
975
972
975
976
979
978
974
972
973
974
979
974
972
969
972
972
975
977
975
973
972
973
979
975
974
969
971
970
974
976
971
969
971
971
977
975
971
969
971
972
970
972
967
964
964
966
970
970
968
964
966
967
969
964
967
965
963
965
967
969
964
960
960
964
966
965
961
961
960
961
964
966
962
961
960
963
966
965
961
959
958
959
964
962
960
958
957
957
961
962
960
954
958
959
962
960
960
954
957
957
962
959
956
952
954
957
960
960
957
955
955
959
960
959
956
952
955
955
961
958
955
954
955
958
960
958
957
957
955
957
962
957
959
957
957
960
961
960
961
957
960
965
969
970
969
969
965
971
975
979
975
970
968
973
975
976
974
967
969
969
969
967
961
959
957
958
961
960
958
954
955
957
961
961
958
955
956
958
962
961
960
959
962
962
967
967
962
955
950
944
943
942
945
962
1001
1068
1161
1251
1330
1386
1419
1417
1370
1264
1136
1008
899
899
921
931
927
922
921
927
936
945
950
958
961
964
965
965
964
960
962
965
968
965
966
964
960
965
968
968
969
966
967
971
971
972
969
966
968
971
974
973
971
969
969
973
976
974
972
972
974
976
980
978
977
978
979
981
983
983
982
980
981
985
988
990
988
986
988
993
998
1000
996
995
998
1004
1010
1011
1011
1010
1015
1019
1025
1027
1027
1027
1032
1037
1047
1051
1053
1057
1062
1070
1080
1084
1090
1093
1100
1108
1116
1121
1126
1129
1135
1143
1151
1154
1158
1157
1160
1164
1163
1158
1149
1139
1129
1122
1114
1100
1086
1069
1057
1046
1037
1026
1012
1000
992
982
980
974
968
960
954
954
954
950
945
940
939
940
940
939
936
934
935
936
936
936
934
930
930
933
936
935
932
928
930
934
933
935
932
928
931
932
936
935
931
933
931
934
938
934
933
932
934
935
941
938
936
934
934
936
938
938
935
935
937
937
940
938
937
932
933
936
937
938
935
931
930
937
939
936
933
931
931
934
933
933
935
932
931
934
936
938
932
930
929
933
936
937
933
930
932
935
936
936
933
931
933
935
937
937
935
932
934
936
938
936
936
937
935
938
943
941
940
934
938
940
944
944
938
937
938
941
944
943
939
938
938
942
943
942
941
941
942
946
950
948
944
944
947
950
952
953
950
947
948
951
954
951
950
948
947
952
951
953
952
947
947
950
952
953
951
951
951
954
958
959
955
955
953
958
960
962
961
960
961
964
972
972
971
967
969
973
978
980
976
973
976
977
980
980
976
973
971
973
972
966
964
963
962
965
971
968
967
962
966
970
973
973
970
966
964
969
975
974
973
973
974
977
983
981
977
970
965
964
961
959
960
973
1002
1055
1132
1215
1304
1378
1431
1451
1436
1369
1241
1113
985
921
933
949
954
946
945
949
958
964
971
976
988
992
996
994
993
987
988
992
998
995
995
994
993
999
1000
1001
997
997
998
999
1003
1003
1003
996
998
1004
1008
1009
1005
1006
1010
1009
1011
1013
1012
1010
1011
1015
1016
1018
1015
1012
1015
1019
1021
1022
1021
1019
1021
1026
1027
1026
1024
1024
1030
1032
1036
1037
1036
1037
1038
1042
1047
1048
1049
1048
1052
1057
1061
1062
1063
1063
1065
1073
1077
1082
1083
1087
1091
1098
1105
1109
1113
1114
1120
1127
1136
1139
1143
1147
1152
1162
1168
1171
1172
1178
1187
1193
1198
1201
1204
1206
1210
1214
1217
1217
1212
1203
1195
1190
1185
1172
1159
1144
1135
1123
1113
1095
1082
1070
1059
1051
1043
1037
1026
1021
1015
1012
1008
1003
997
992
990
991
992
994
989
988
986
989
991
988
983
977
983
983
986
985
982
984
985
987
990
988
984
983
983
986
987
990
983
985
984
987
988
988
986
984
985
986
990
989
986
983
984
985
989
984
986
984
983
985
988
988
985
983
985
984
988
987
982
981
981
985
988
984
983
980
978
983
986
984
983
978
980
980
984
985
981
979
977
979
985
980
981
976
978
981
981
982
979
979
976
979
982
981
977
977
979
980
983
981
981
976
975
981
981
981
977
976
977
981
984
983
981
976
975
979
982
982
982
979
980
981
981
982
982
978
979
981
983
983
979
978
978
981
984
981
979
977
977
981
985
984
979
979
979
983
986
982
981
981
980
980
987
985
982
980
980
984
985
986
983
978
982
982
986
984
982
979
978
983
984
987
985
983
985
985
990
989
993
994
994
996
998
999
997
993
997
999
999
999
999
995
994
994
990
992
986
981
982
984
989
986
984
983
983
986
985
987
984
982
982
985
988
988
985
983
983
986
987
989
990
986
979
977
975
967
965
966
984
1028
1101
1196
1293
1372
1428
1448
1422
1335
1207
1079
951
921
940
958
952
946
944
951
955
962
966
977
986
991
992
994
991
990
990
991
995
994
994
992
992
996
999
996
997
996
997
1000
1000
999
997
995
997
998
1004
1001
998
999
1000
1002
1005
1005
1003
1000
1001
1005
1006
1008
1005
1005
1006
1010
1010
1009
1010
1009
1010
1015
1018
1018
1017
1017
1020
1022
1026
1023
1025
1026
1028
1033
1036
1038
1038
1037
1041
1047
1053
1054
1055
1057
1060
1067
1075
1079
1079
1080
1082
1091
1097
1103
1106
1108
1114
1124
1133
1136
1139
1141
1148
1154
1158
1166
1160
1168
1170
1176
1176
1178
1176
1170
1167
1161
1159
1146
1132
1120
1108
1095
1089
1077
1062
1049
1038
1029
1022
1011
1001
991
988
984
984
978
972
968
967
967
968
964
962
959
958
960
962
959
957
952
952
955
957
956
953
953
953
954
958
957
954
950
950
953
958
956
953
951
948
952
960
955
950
948
952
951
957
953
950
947
950
952
956
953
951
950
949
953
952
950
949
949
950
951
955
952
947
948
947
948
951
950
949
945
946
946
949
948
947
943
941
942
945
950
945
943
942
946
947
945
945
942
942
945
946
945
943
941
937
941
943
942
941
938
937
940
943
942
937
936
938
937
939
941
938
937
937
939
945
944
941
939
939
942
941
940
939
936
939
941
941
941
938
937
938
940
944
942
939
937
939
946
946
946
948
945
944
951
954
954
955
952
952
955
957
956
952
947
949
950
952
947
942
936
940
939
942
939
937
935
936
940
944
940
938
936
935
936
939
938
937
932
937
939
943
943
941
936
930
926
925
919
919
935
985
1073
1191
1304
1380
1403
1335
1207
1079
951
865
904
916
910
909
913
926
937
944
947
947
944
942
942
943
947
951
952
947
945
947
950
951
952
952
948
949
950
954
954
952
949
950
953
957
956
956
954
956
959
962
963
959
958
961
964
969
968
969
967
969
971
974
976
975
974
979
981
986
987
985
989
992
996
1001
1003
1003
1005
1008
1015
1020
1023
1026
1026
1035
1043
1046
1052
1054
1056
1068
1075
1082
1087
1091
1095
1101
1109
1115
1120
1124
1126
1132
1139
1144
1147
1144
1142
1143
1142
1138
1130
1117
1106
1097
1086
1074
1059
1047
1032
1016
1007
999
988
975
964
955
952
948
942
936
929
928
928
925
923
918
915
914
917
915
915
910
909
909
909
910
911
910
906
904
909
912
910
908
904
905
909
913
910
909
907
908
911
913
911
910
907
907
913
913
914
914
912
914
914
917
916
911
908
911
914
916
914
914
911
911
911
913
915
911
908
909
911
913
912
911
908
906
909
908
910
906
906
905
908
911
908
905
903
907
908
910
908
905
899
904
906
906
904
902
901
903
903
904
903
898
900
901
903
906
905
902
900
900
901
902
904
902
898
899
901
901
900
900
898
897
899
904
904
901
896
900
902
905
903
901
900
900
900
903
905
903
899
899
902
901
904
902
900
902
903
907
905
902
900
900
902
908
908
905
903
903
903
907
908
906
903
904
908
911
909
908
905
912
914
919
921
917
916
915
923
926
926
926
920
921
924
926
923
920
919
919
921
920
918
911
909
909
911
912
912
910
908
910
914
914
914
909
908
911
914
919
916
915
913
915
917
918
919
920
917
915
913
909
903
899
898
904
928
969
1030
1112
1203
1290
1353
1390
1395
1354
1267
1139
1011
898
867
874
884
890
887
890
890
891
895
902
915
925
928
925
924
925
928
927
930
926
927
928
931
933
935
932
931
930
933
935
937
932
934
934
939
940
940
936
936
935
940
943
942
939
939
940
940
945
943
943
943
943
948
950
948
947
945
948
950
953
952
949
948
951
953
957
957
955
955
956
963
968
965
967
965
967
971
975
980
977
975
980
985
991
989
991
993
997
1000
1005
1005
1007
1011
1014
1020
1026
1033
1037
1039
1043
1050
1057
1065
1065
1068
1075
1083
1089
1095
1096
1100
1105
1114
1121
1121
1126
1126
1131
1135
1140
1139
1138
1137
1134
1131
1130
1121
1111
1099
1090
1083
1075
1061
1048
1033
1024
1016
1010
998
985
975
966
961
959
953
945
940
935
935
936
932
926
922
921
925
924
922
918
913
916
917
917
918
913
912
912
913
916
915
913
910
913
915
916
914
914
911
912
916
918
916
915
912
914
916
920
921
919
915
915
917
919
918
916
916
918
920
921
920
918
916
914
916
921
924
918
918
915
919
921
921
919
916
916
920
923
921
916
915
915
917
921
918
917
912
915
919
917
917
916
915
917
921
923
922
919
916
917
921
923
922
918
919
916
920
923
926
921
918
921
925
926
928
923
920
922
925
929
927
925
923
924
928
928
929
925
924
927
928
933
932
927
924
926
930
932
932
929
926
928
932
935
937
933
932
933
937
940
937
934
934
934
939
940
938
935
934
936
939
941
939
937
937
938
942
944
943
939
938
940
944
948
946
946
944
944
945
948
947
946
941
945
947
950
952
949
949
948
952
954
954
954
950
950
952
957
957
957
956
957
959
962
962
965
964
969
971
972
974
974
972
976
973
978
974
975
970
974
975
979
977
972
972
969
972
971
967
967
965
967
970
971
974
969
965
969
974
977
976
974
974
974
976
979
980
979
978
982
982
983
980
970
965
960
963
971
984
1016
1077
1172
1282
1377
1436
1455
1431
1350
1222
1094
966
922
942
959
962
959
956
959
963
972
980
988
998
999
1000
996
1002
1003
1005
1003
1001
1005
1011
1008
1008
1008
1007
1010
1011
1017
1017
1012
1010
1013
1017
1020
1018
1017
1016
1017
1021
1024
1023
1020
1020
1022
1026
1030
1029
1027
1027
1025
1029
1035
1033
1031
1030
1033
1034
1038
1036
1036
1032
1038
1044
1047
1047
1044
1046
1049
1052
1057
1057
1055
1056
1060
1064
1070
1071
1071
1072
1074
1079
1085
1088
1089
1089
1097
1102
1106
1110
1111
1116
1124
1132
1136
1141
1143
1147
1156
1164
1169
1172
1174
1174
1182
1187
1192
1200
1200
1204
1206
1211
1217
1222
1220
1218
1218
1220
1218
1212
1206
1193
1187
1181
1176
1165
1152
1135
1128
1120
1111
1100
1087
1071
1063
1058
1053
1045
1039
1032
1029
1027
1028
1025
1019
1016
1017
1018
1019
1018
1011
1011
1010
1009
1013
1012
1010
1007
1005
1009
1011
1012
1010
1006
1007
1010
1013
1011
1011
1010
1007
1011
1013
1010
1008
1007
1007
1011
1013
1012
1009
1008
1009
1008
1012
1010
1008
1006
1010
1011
1013
1012
1010
1009
1012
1013
1015
1012
1008
1008
1008
1010
1011
1010
1008
1005
1006
1008
1012
1012
1007
1006
1005
1010
1011
1009
1005
1005
1007
1010
1011
1007
1003
1004
1004
1006
1007
1004
1004
1002
1004
1005
1007
1007
1003
1000
1002
1005
1008
1006
1003
1000
1000
1006
1005
1005
1002
1002
1000
1004
1004
1006
1002
999
1001
1004
1006
1006
1003
999
1000
999
1002
1001
1002
999
997
1001
1004
1004
998
997
1000
1000
1003
1002
998
996
997
999
1004
1002
1001
999
1001
1003
1005
1003
1002
998
1001
1002
1004
1003
999
998
1000
1002
1005
1003
1001
998
1001
1003
1003
1004
1002
1000
1001
1005
1005
1003
1005
1003
1005
1008
1012
1011
1011
1009
1010
1012
1015
1019
1018
1014
1014
1015
1018
1016
1012
1009
1005
1008
1008
1005
999
996
997
999
1004
1003
1001
1002
1002
1003
1003
1005
1001
999
1002
1003
1007
1004
1003
1004
1001
997
993
987
979
977
994
1028
1094
1185
1283
1365
1426
1447
1424
1329
1201
1073
945
936
967
977
965
961
963
972
984
994
1002
1007
1007
1009
1013
1013
1008
1008
1009
1013
1017
1015
1011
1011
1014
1016
1018
1014
1012
1012
1014
1016
1019
1017
1016
1016
1016
1019
1023
1021
1021
1017
1015
1022
1027
1023
1022
1018
1024
1027
1029
1029
1027
1026
1030
1033
1035
1036
1035
1035
1037
1042
1047
1046
1045
1043
1050
1053
1057
1055
1057
1058
1061
1067
1072
1074
1072
1075
1081
1086
1091
1093
1095
1099
1103
1109
1116
1122
1122
1122
1130
1139
1146
1147
1146
1149
1156
1165
1171
1174
1173
1179
1183
1189
1194
1194
1191
1191
1192
1190
1191
1183
1170
1160
1153
1146
1137
1125
1110
1097
1088
1076
1064
1054
1043
1030
1021
1014
1010
1002
992
986
985
984
981
978
974
967
967
967
966
966
963
958
958
960
960
959
957
955
953
956
957
954
952
954
954
958
953
956
951
953
953
956
958
959
954
952
952
957
958
959
955
951
950
953
953
954
951
947
948
950
951
951
948
945
946
950
949
951
946
943
943
946
949
946
941
941
943
942
943
944
938
938
939
938
943
941
937
935
934
938
940
936
934
934
934
935
939
935
931
927
928
930
935
934
931
931
931
932
932
931
929
927
927
930
932
930
926
923
925
929
931
927
929
924
923
926
931
927
924
922
924
928
930
928
925
925
922
930
931
931
931
930
932
937
937
937
936
934
938
942
945
943
940
936
936
938
936
936
928
927
925
927
921
922
919
918
918
921
922
920
918
915
919
919
920
920
915
916
917
920
921
922
919
917
921
922
923
922
917
908
906
904
903
903
913
942
1002
1091
1189
1277
1336
1367
1366
1321
1216
1088
960
863
860
877
891
886
881
881
886
892
899
905
910
919
924
925
928
927
926
925
927
929
932
931
924
924
927
931
930
931
928
925
927
928
933
930
928
929
930
932
936
932
930
930
934
935
937
935
937
934
936
940
940
942
941
938
940
944
948
944
944
943
946
949
954
954
951
951
955
958
963
962
960
959
958
967
969
972
972
974
976
981
983
987
987
989
992
998
1001
1008
1008
1008
1017
1025
1031
1036
1039
1042
1048
1056
1065
1068
1072
1076
1082
1088
1097
1097
1101
1102
1110
1117
1122
1126
1126
1126
1125
1124
1116
1108
1099
1088
1078
1068
1057
1044
1028
1012
997
988
977
970
958
943
939
932
931
923
917
912
909
909
909
904
902
899
898
899
900
898
896
890
889
895
896
896
892
888
889
893
893
894
892
890
892
894
894
894
892
893
893
897
896
895
893
892
890
893
894
895
893
890
894
895
898
895
897
894
895
897
898
898
896
894
893
893
897
892
892
890
893
893
894
893
891
888
889
891
894
893
887
885
887
890
892
888
886
884
886
889
888
888
888
883
886
890
894
888
886
885
886
888
890
888
886
886
887
888
890
889
887
884
886
887
893
891
887
886
886
889
891
886
885
885
888
889
890
889
887
887
885
889
892
888
885
885
884
888
888
886
888
884
887
890
893
887
889
888
887
891
892
894
891
888
893
893
896
895
894
893
895
898
902
900
899
900
905
910
909
909
907
906
912
915
915
911
905
906
906
911
910
906
902
899
896
896
898
897
893
894
898
901
904
903
898
898
897
903
906
904
902
899
903
904
908
904
905
903
904
906
904
899
890
886
885
891
910
944
997
1075
1173
1260
1329
1365
1367
1323
1231
1103
975
862
849
865
876
880
877
875
874
879
887
900
909
912
912
910
913
914
916
914
913
910
914
917
919
917
914
912
914
915
920
918
918
916
920
921
925
922
919
919
922
923
927
926
924
923
926
927
930
927
926
926
927
929
933
932
934
932
933
935
937
936
937
938
939
943
946
945
945
945
946
952
955
957
956
954
960
964
967
969
969
970
976
981
985
990
990
992
997
1004
1008
1014
1014
1019
1025
1032
1039
1049
1051
1055
1063
1069
1078
1083
1087
1092
1097
1104
1112
1115
1115
1118
1123
1128
1130
1128
1122
1114
1108
1103
1094
1082
1066
1051
1037
1027
1017
1002
992
977
972
963
956
949
940
935
930
928
924
923
917
911
911
910
913
912
907
907
907
909
910
906
906
903
901
902
903
901
900
902
904
907
907
906
902
903
905
907
909
906
902
902
904
904
908
909
904
904
906
908
909
908
904
904
905
908
910
909
906
906
906
909
911
910
907
906
905
908
912
911
908
907
906
907
912
909
907
904
905
909
910
910
906
908
908
910
914
909
906
904
903
904
911
909
908
906
906
907
912
910
909
905
908
910
911
911
908
905
909
910
911
909
908
908
905
911
914
912
909
904
908
910
911
911
909
907
907
910
912
911
910
905
909
913
913
912
912
911
910
914
917
917
914
912
913
914
918
915
913
913
913
914
916
916
915
914
914
919
919
917
916
914
915
916
917
918
916
915
916
918
921
921
920
917
920
922
924
921
921
920
920
925
923
920
921
921
921
922
926
927
923
919
924
925
927
929
927
926
930
935
938
939
938
937
940
943
944
936
933
932
935
935
933
931
925
925
924
929
931
931
927
929
926
931
932
934
931
927
934
935
936
939
936
932
926
923
920
921
940
980
1060
1167
1278
1361
1408
1413
1358
1240
1112
984
876
885
906
912
912
907
911
912
926
939
947
947
946
944
944
946
950
948
943
945
946
948
955
955
951
947
950
953
956
953
953
950
953
954
956
958
954
954
956
960
962
963
959
958
960
963
967
967
963
964
964
968
971
972
969
971
972
974
976
976
974
975
980
981
985
987
985
981
986
990
997
998
998
998
1002
1006
1011
1015
1013
1017
1021
1027
1031
1035
1037
1040
1044
1054
1062
1067
1069
1071
1079
1089
1095
1099
1100
1108
1113
1117
1126
1133
1133
1140
1148
1155
1159
1162
1158
1159
1157
1160
1159
1152
1139
1130
1123
1111
1102
1088
1072
1057
1046
1040
1032
1018
1005
998
989
983
981
974
968
959
959
957
956
950
949
944
945
949
949
944
940
941
944
944
944
944
941
940
942
941
943
942
941
940
939
944
946
945
940
936
940
943
943
940
940
937
940
943
945
942
935
938
938
941
945
942
941
942
943
945
945
942
940
937
941
942
947
945
941
939
941
943
944
943
941
939
940
942
943
943
938
939
939
944
941
940
936
937
938
940
942
941
939
937
940
941
942
940
939
937
935
939
941
939
938
938
937
937
942
941
940
937
937
941
944
942
940
936
940
945
944
944
939
937
938
941
942
941
940
939
939
942
940
943
942
938
938
944
947
945
941
939
941
943
942
946
942
942
944
945
946
947
944
943
944
946
949
947
942
941
944
946
948
947
947
944
944
946
951
950
947
947
949
948
948
949
950
947
949
953
954
952
949
949
952
955
957
956
952
952
949
953
956
956
952
949
954
958
958
959
958
958
958
960
963
968
964
961
965
974
976
975
969
969
967
970
974
972
965
962
962
963
962
958
956
957
958
961
963
961
958
958
959
962
966
962
961
961
964
967
967
967
968
966
969
972
971
966
958
950
947
951
963
983
1029
1105
1204
1297
1375
1420
1426
1403
1326
1211
1083
962
919
923
940
942
942
937
935
937
942
950
960
966
971
974
976
980
983
980
980
978
979
981
984
984
980
976
980
986
987
987
982
980
984
987
989
987
984
983
985
992
994
990
987
985
988
993
992
992
993
992
993
997
1000
998
996
996
999
1002
1001
1002
1002
1003
1003
1005
1009
1006
1006
1006
1011
1013
1016
1017
1017
1017
1020
1023
1030
1029
1029
1031
1035
1039
1045
1046
1046
1046
1051
1057
1063
1064
1065
1071
1074
1084
1089
1095
1094
1100
1107
1113
1122
1127
1130
1131
1138
1148
1154
1158
1162
1164
1169
1177
1184
1187
1187
1182
1188
1188
1189
1183
1173
1164
1157
1144
1135
1121
1106
1088
1081
1072
1059
1048
1031
1023
1016
1012
1008
998
992
989
984
983
980
981
977
972
971
972
972
971
967
963
964
967
968
969
965
960
962
967
969
968
964
961
964
967
968
966
964
962
965
967
967
968
965
962
967
968
970
969
965
965
968
970
972
969
968
963
963
967
971
969
968
967
968
967
970
969
970
968
966
969
972
969
965
966
966
969
969
967
968
963
964
968
969
967
968
963
961
968
971
968
966
964
966
968
971
967
966
964
964
966
967
967
963
960
962
965
966
964
960
960
963
964
966
965
961
963
963
963
967
965
962
960
961
962
965
962
959
961
965
965
966
965
958
961
962
965
964
960
961
959
960
964
966
963
962
960
963
963
966
967
964
963
966
969
972
973
970
972
974
976
978
976
976
974
980
984
986
983
981
978
980
982
982
978
975
972
971
970
970
967
965
960
964
963
968
966
963
964
962
968
969
970
966
966
968
971
972
973
973
971
972
975
978
973
968
961
957
954
956
949
954
971
1009
1069
1150
1240
1325
1389
1428
1434
1386
1280
1152
1024
920
917
937
943
938
935
935
940
944
948
954
961
970
978
981
980
978
977
977
981
984
982
979
980
980
981
982
984
983
980
984
987
988
987
985
985
987
989
991
990
989
988
989
989
993
995
992
988
994
997
997
998
993
995
996
999
1002
1002
997
996
1001
1004
1006
1006
1007
1005
1004
1010
1014
1015
1015
1014
1017
1018
1022
1020
1023
1023
1026
1030
1033
1037
1036
1038
1041
1044
1049
1053
1051
1055
1057
1065
1071
1075
1076
1079
1084
1091
1098
1101
1106
1110
1118
1124
1131
1135
1138
1144
1150
1155
1163
1164
1166
1168
1177
1186
1190
1192
1192
1191
1192
1193
1192
1186
1176
1169
1161
1153
1144
1131
1115
1102
1091
1083
1072
1061
1042
1036
1029
1023
1016
1009
998
994
990
989
987
982
973
972
973
974
974
969
966
959
961
965
965
962
960
957
957
959
962
959
954
956
957
959
960
959
957
958
959
960
961
961
958
957
957
963
965
962
958
958
960
961
965
964
956
961
962
966
964
965
963
963
962
967
966
966
963
963
965
968
970
968
963
961
963
968
965
963
960
961
963
964
966
964
958
957
958
965
965
961
958
957
958
960
960
961
955
955
960
962
961
961
958
956
959
959
961
958
958
954
958
958
961
960
957
957
958
962
963
960
959
956
959
958
963
960
958
956
958
960
962
960
955
956
956
960
963
956
959
953
956
963
963
962
957
959
958
960
959
958
957
958
959
961
961
961
959
957
956
961
963
962
962
961
965
966
969
970
969
969
972
977
978
978
975
978
980
984
987
981
979
975
978
978
980
977
973
967
966
967
967
965
963
962
964
967
968
969
965
965
968
972
971
968
967
965
970
972
977
976
972
971
969
967
963
955
953
951
965
998
1059
1152
1265
1367
1437
1462
1433
1325
1197
1069
941
916
944
952
947
944
947
955
964
975
980
984
985
984
986
984
980
984
984
988
991
989
987
988
987
989
994
990
991
991
994
995
999
997
994
995
997
1001
999
998
999
996
998
1001
1004
1000
1000
1000
1002
1007
1009
1009
1007
1007
1009
1015
1018
1014
1013
1014
1018
1022
1027
1024
1023
1025
1029
1032
1036
1037
1036
1039
1041
1049
1052
1049
1053
1054
1060
1067
1073
1076
1075
1079
1085
1092
1097
1103
1105
1112
1116
1125
1134
1139
1142
1145
1154
1160
1167
1169
1170
1175
1181
1187
1193
1195
1194
1195
1196
1195
1192
1187
1176
1166
1155
1149
1135
1126
1109
1093
1084
1075
1065
1054
1041
1030
1026
1019
1016
1007
998
992
990
987
986
982
976
974
974
973
972
969
966
964
967
969
971
969
965
963
964
966
969
968
965
963
963
968
971
968
967
964
964
965
970
969
964
964
967
969
969
968
965
962
962
968
969
967
965
964
966
968
969
966
963
962
964
967
970
965
961
961
964
969
968
966
964
962
965
964
963
965
961
956
959
963
968
962
962
961
962
965
965
963
959
959
963
966
963
962
962
956
959
964
964
963
961
957
962
964
966
964
960
958
961
962
965
965
959
958
958
962
965
963
959
959
961
963
965
964
961
958
961
965
966
967
960
960
965
965
967
964
961
960
963
966
967
964
963
960
962
964
968
967
964
961
965
968
970
969
965
965
967
970
970
968
963
963
966
971
972
968
965
967
967
969
971
969
966
967
968
972
971
970
969
966
968
970
970
969
970
968
970
973
973
973
970
969
972
977
979
979
978
978
984
985
987
985
986
987
989
990
988
988
985
985
985
985
984
977
976
972
972
976
976
976
974
972
972
976
973
977
975
975
974
979
979
982
979
978
981
986
987
982
973
965
961
965
976
999
1043
1121
1221
1323
1402
1453
1463
1426
1329
1201
1073
945
918
935
954
957
954
952
954
959
968
979
986
990
989
988
989
992
994
992
991
988
988
997
997
996
992
992
996
999
998
999
995
995
998
1001
1004
1001
1000
999
1003
1005
1006
1005
1002
1002
1004
1006
1008
1008
1003
1005
1006
1012
1010
1012
1012
1010
1013
1016
1017
1019
1015
1013
1019
1021
1025
1025
1023
1024
1028
1028
1036
1035
1032
1034
1039
1043
1047
1047
1045
1049
1052
1057
1063
1061
1063
1068
1073
1081
1087
1087
1089
1096
1100
1109
1117
1121
1122
1128
1135
1145
1149
1156
1158
1164
1170
1178
1184
1186
1191
1192
1198
1200
1201
1201
1195
1189
1185
1177
1167
1151
1139
1125
1112
1103
1091
1074
1060
1047
1039
1030
1022
1015
1004
998
992
994
992
987
979
978
978
977
975
975
970
969
971
972
972
969
967
967
967
969
968
968
968
965
970
970
972
971
969
967
970
973
974
970
967
967
969
971
971
969
966
966
970
969
973
969
967
969
967
971
973
972
969
968
969
973
971
973
969
967
968
971
971
967
966
965
969
971
970
971
967
963
965
967
967
968
963
962
963
966
968
966
964
963
965
969
969
964
965
963
966
962
964
966
963
961
964
964
965
965
963
962
962
967
966
966
959
957
957
963
964
964
961
960
963
963
964
963
962
962
966
967
968
967
964
963
966
965
966
965
961
962
965
966
966
966
963
963
963
965
967
965
964
965
964
966
968
967
964
961
963
968
967
967
964
965
968
970
971
968
965
964
968
968
970
969
966
966
969
970
974
973
969
970
972
973
977
977
972
976
980
981
985
981
981
983
983
989
989
990
983
983
985
989
988
984
983
979
981
980
978
976
968
970
974
978
979
978
975
975
980
981
983
980
980
979
978
983
985
983
981
982
983
986
984
978
969
960
959
963
970
983
1013
1079
1169
1271
1357
1420
1449
1445
1394
1287
1159
1031
924
921
945
956
953
947
943
946
954
962
972
979
985
986
988
993
993
991
990
989
995
997
997
994
992
992
995
999
998
997
993
995
997
1001
1003
998
997
997
1000
1002
1003
1005
1001
1001
1001
1007
1007
1003
1002
1004
1005
1007
1007
1010
1007
1004
1007
1012
1015
1016
1012
1014
1014
1019
1023
1022
1020
1020
1024
1026
1031
1032
1029
1032
1035
1041
1044
1045
1047
1047
1054
1060
1063
1065
1067
1071
1077
1085
1092
1097
1101
1108
1116
1124
1131
1134
1139
1144
1153
1158
1168
1169
1172
1176
1183
1188
1193
1195
1191
1190
1186
1181
1171
1158
1141
1130
1114
1106
1091
1077
1061
1049
1042
1033
1023
1014
1003
997
994
992
986
982
977
974
972
973
972
971
967
965
964
965
965
963
960
959
961
963
963
962
959
960
960
962
960
961
960
956
958
960
965
963
958
959
961
965
965
965
962
960
964
967
968
966
962
961
962
964
963
963
958
956
960
963
963
963
960
957
958
960
963
961
955
952
956
959
962
958
955
954
956
957
959
958
956
954
956
955
956
956
952
953
955
955
957
955
953
952
952
955
958
955
952
953
952
954
956
951
951
951
951
956
954
954
952
953
951
954
957
955
950
952
954
955
958
954
952
952
955
957
957
954
951
951
955
958
957
956
951
952
953
955
957
954
953
952
954
957
958
958
956
955
956
963
963
962
961
963
965
970
973
966
965
967
972
974
977
972
969
968
971
973
970
968
965
962
958
960
957
956
954
953
955
959
961
959
957
957
959
959
962
958
958
958
961
966
968
966
964
962
967
969
965
957
948
945
946
955
972
1009
1072
1167
1275
1359
1411
1420
1382
1275
1147
1019
911
910
924
934
934
934
936
935
938
944
956
966
973
974
972
968
969
974
975
973
970
971
975
975
974
974
974
972
976
980
982
981
979
979
980
984
984
982
980
978
983
985
987
985
986
980
986
988
989
989
985
985
989
994
993
992
989
990
991
996
997
996
996
993
995
1003
1003
1001
999
1003
1007
1012
1012
1013
1011
1012
1018
1021
1022
1025
1021
1023
1029
1036
1039
1041
1039
1043
1049
1056
1061
1065
1067
1070
1077
1083
1091
1095
1100
1104
1111
1119
1125
1127
1130
1133
1138
1146
1152
1156
1157
1158
1165
1169
1174
1173
1169
1167
1166
1160
1154
1144
1134
1124
1113
1102
1091
1078
1062
1049
1040
1030
1023
1014
1005
998
991
985
981
972
968
963
959
960
957
955
946
946
948
949
948
945
941
938
939
943
942
942
935
933
935
936
939
938
936
938
938
940
939
939
937
936
940
939
939
941
939
939
942
944
943
942
938
936
939
945
943
940
939
937
941
944
946
942
941
938
939
943
942
940
939
936
937
936
938
936
934
935
935
938
939
936
932
934
935
940
937
936
933
931
933
937
939
935
932
932
934
935
934
932
928
928
931
930
932
930
927
929
930
931
933
931
930
928
930
932
931
930
928
928
930
932
934
929
930
925
930
933
934
931
928
928
928
932
932
930
930
925
929
929
933
930
928
928
929
933
932
929
928
930
929
929
934
930
927
926
928
930
929
930
927
922
928
928
931
926
929
929
932
934
933
930
929
929
930
935
936
933
931
931
931
934
937
934
933
930
931
933
936
934
931
932
937
937
938
938
935
935
937
940
942
943
937
940
943
947
951
949
947
944
949
951
958
955
946
949
946
951
953
951
949
947
945
945
944
940
937
936
938
941
940
939
935
933
943
944
946
942
938
937
939
940
944
946
944
945
948
953
954
951
942
936
933
931
928
927
938
972
1027
1105
1196
1285
1353
1405
1423
1399
1311
1183
1055
927
886
903
920
922
918
916
922
929
933
940
947
954
958
963
963
960
958
956
959
961
961
959
958
960
963
967
966
968
962
962
964
968
969
966
966
966
969
971
972
970
966
966
966
970
973
974
969
969
976
980
979
978
975
976
979
983
985
986
981
979
982
988
990
988
987
987
993
996
999
997
995
997
1000
1004
1007
1007
1006
1008
1013
1016
1018
1020
1021
1023
1029
1037
1040
1040
1044
1047
1047
1056
1064
1067
1068
1077
1085
1091
1095
1099
1100
1105
1115
1125
1130
1133
1132
1136
1146
1153
1160
1161
1163
1166
1169
1172
1171
1168
1163
1159
1154
1149
1139
1125
1113
1098
1089
1076
1067
1051
1036
1026
1019
1011
1002
996
986
975
972
972
967
963
959
951
955
954
954
950
945
943
941
945
948
942
941
936
940
943
945
943
940
938
940
942
942
939
938
938
936
943
941
941
940
938
939
941
942
942
940
939
942
943
945
943
941
939
939
944
942
941
935
935
940
942
943
943
938
938
941
945
943
940
939
939
941
942
941
942
937
935
941
943
940
939
938
936
938
940
940
938
936
937
938
941
940
938
935
933
935
937
936
936
934
935
935
940
940
938
937
934
937
940
939
937
937
935
938
938
941
939
935
937
939
939
939
940
936
937
937
940
939
939
937
935
938
941
942
938
933
935
938
940
941
940
934
936
937
943
942
939
935
935
940
942
943
941
936
939
939
943
944
938
938
940
941
944
946
940
944
942
944
948
949
944
945
941
945
948
945
948
944
940
947
950
948
943
944
944
946
950
949
949
947
944
948
951
951
947
944
947
949
953
951
949
949
952
953
955
953
953
952
951
953
958
960
960
957
958
963
967
969
965
965
965
972
975
972
967
968
967
969
971
969
965
961
958
958
960
961
960
956
958
959
961
960
961
957
958
961
964
964
962
959
963
964
967
967
968
965
964
963
959
956
948
944
947
966
1006
1069
1159
1257
1345
1413
1447
1441
1392
1286
1158
1030
923
916
932
936
934
935
938
939
944
948
956
968
976
978
975
975
974
976
979
980
980
979
978
978
984
985
984
983
984
987
991
992
989
985
988
989
993
993
993
989
991
994
996
998
995
994
991
997
1001
1003
1001
996
997
999
1002
1003
1005
1002
1005
1006
1009
1011
1010
1007
1010
1012
1015
1018
1020
1020
1017
1024
1027
1028
1028
1029
1030
1032
1032
1041
1039
1041
1042
1046
1053
1054
1058
1059
1063
1066
1073
1078
1084
1085
1088
1098
1106
1110
1114
1115
1121
1130
1137
1145
1147
1151
1155
1162
1167
1173
1179
1181
1186
1188
1195
1200
1200
1198
1197
1194
1194
1191
1181
1171
1161
1152
1141
1128
1112
1099
1085
1073
1063
1056
1043
1034
1024
1015
1012
1006
997
992
990
989
987
986
983
977
977
976
977
976
973
970
969
972
977
976
973
968
970
969
972
972
972
969
967
971
974
974
972
968
969
973
977
975
975
969
971
973
976
976
974
971
973
975
979
978
975
972
971
971
977
976
976
973
973
975
979
976
976
975
974
976
979
973
974
975
973
974
978
978
974
970
971
973
977
976
975
973
974
974
976
978
973
973
971
974
979
979
976
973
972
972
976
976
974
970
972
971
974
978
977
975
972
975
978
977
974
971
972
975
977
979
975
973
974
977
977
981
976
975
975
978
979
981
978
975
975
976
982
981
976
976
975
978
979
981
980
977
976
978
980
982
979
974
977
979
980
981
979
978
976
977
978
981
980
977
979
983
982
982
982
981
979
982
984
986
982
980
979
983
982
983
982
979
978
980
984
984
981
978
982
986
990
991
992
991
990
993
996
998
997
996
998
998
1001
1001
999
996
996
999
999
998
994
989
986
984
988
989
987
983
985
989
990
990
989
986
987
989
993
992
991
988
989
990
997
999
996
997
996
996
996
990
982
971
969
975
989
1017
1061
1133
1223
1312
1386
1434
1452
1427
1352
1224
1096
974
938
949
965
970
970
966
965
963
969
978
988
996
1001
1003
1001
1005
1009
1008
1008
1008
1007
1008
1012
1012
1010
1008
1012
1015
1016
1019
1015
1012
1012
1014
1021
1019
1019
1020
1018
1019
1023
1022
1020
1017
1019
1023
1024
1026
1022
1023
1023
1024
1031
1030
1029
1028
1028
1029
1032
1037
1035
1033
1031
1034
1038
1039
1042
1039
1039
1044
1045
1051
1050
1048
1051
1055
1058
1061
1060
1059
1061
1064
1071
1072
1071
1074
1074
1082
1088
1092
1095
1093
1099
1105
1109
1118
1120
1122
1127
1131
1142
1146
1150
1153
1156
1167
1173
1181
1183
1185
1190
1197
1207
1211
1213
1213
1214
1220
1219
1221
1216
1212
1206
1200
1194
1185
1169
1156
1144
1134
1124
1111
1097
1082
1073
1066
1059
1051
1041
1033
1027
1024
1020
1017
1010
1005
1000
1002
1001
1000
996
992
991
992
995
994
992
990
988
989
990
989
991
988
987
990
991
991
989
987
987
986
990
991
989
985
985
987
990
992
990
986
988
990
993
994
989
989
989
988
989
990
992
988
990
990
989
992
992
988
988
984
990
989
988
985
983
985
989
989
986
981
980
983
987
986
985
981
980
984
985
987
984
982
980
982
983
983
982
978
978
981
984
984
983
978
977
979
980
984
981
977
979
979
980
983
979
976
974
976
979
980
979
972
974
976
978
981
979
976
978
979
983
983
979
978
976
980
982
982
979
979
979
981
985
985
982
978
977
976
983
985
981
979
983
989
993
996
992
991
993
994
998
999
999
1001
1002
1004
1003
1001
998
995
992
995
994
996
989
985
981
982
986
985
987
981
982
984
985
987
985
982
983
986
988
989
984
986
989
986
993
992
994
989
990
987
981
976
972
970
974
992
1028
1091
1175
1267
1358
1427
1461
1455
1390
1264
1136
1008
929
941
959
960
958
960
962
966
970
972
982
990
996
1003
1000
998
997
1002
1006
1005
1004
1001
1001
1004
1008
1007
1006
1007
1005
1005
1011
1011
1009
1007
1009
1010
1014
1013
1014
1010
1011
1012
1018
1017
1016
1014
1016
1019
1021
1023
1024
1021
1022
1024
1026
1029
1026
1024
1026
1026
1030
1029
1031
1031
1034
1036
1040
1043
1040
1039
1041
1046
1046
1049
1053
1052
1054
1058
1063
1066
1065
1069
1070
1077
1082
1082
1090
1092
1096
1100
1111
1115
1119
1123
1127
1136
1143
1148
1155
1158
1166
1171
1180
1185
1184
1189
1195
1203
1210
1213
1215
1215
1216
1217
1215
1210
1201
1188
1176
1165
1154
1139
1120
1105
1091
1075
1069
1058
1044
1034
1023
1022
1019
1014
1008
1000
998
999
996
995
991
990
987
991
991
990
987
982
983
984
987
983
985
980
980
983
986
988
984
977
979
983
987
988
987
984
983
986
989
989
986
986
984
986
987
991
988
985
985
987
987
989
987
984
982
986
990
987
987
985
983
985
985
984
984
981
980
982
983
986
983
981
979
981
982
983
981
976
978
978
983
983
983
978
980
980
980
983
979
979
978
979
980
980
979
977
977
977
982
983
978
976
977
979
981
982
979
978
977
981
980
982
980
977
978
980
982
981
980
974
974
980
984
984
982
978
980
981
985
985
982
977
979
981
984
984
982
980
980
980
981
984
981
978
979
979
984
986
982
980
980
982
984
982
981
978
980
981
986
986
984
984
981
985
988
992
991
989
990
989
997
996
996
996
996
1000
1001
997
995
994
996
996
999
994
993
989
985
986
990
988
983
981
986
987
989
989
987
986
985
987
990
990
990
986
988
989
994
996
993
994
990
993
991
984
976
971
973
984
1008
1055
1126
1217
1311
1396
1450
1472
1451
1381
1253
1125
997
931
948
962
965
963
965
968
970
976
984
997
1003
1005
1002
999
1000
1003
1007
1005
1004
1001
1003
1007
1010
1011
1010
1005
1010
1011
1014
1014
1010
1011
1014
1015
1017
1017
1014
1014
1013
1013
1019
1019
1018
1016
1013
1017
1021
1022
1023
1020
1023
1026
1031
1030
1032
1028
1029
1033
1038
1037
1036
1037
1036
1039
1044
1048
1049
1046
1049
1054
1056
1061
1062
1061
1065
1069
1074
1078
1083
1082
1086
1094
1100
1105
1107
1111
1120
1126
1135
1142
1146
1148
1153
1162
1170
1177
1180
1183
1189
1195
1203
1209
1209
1210
1213
1216
1218
1216
1205
1202
1192
1188
1180
1166
1151
1135
1122
1111
1098
1087
1073
1058
1048
1042
1036
1032
1022
1015
1010
1008
1006
1000
997
993
992
992
996
996
990
988
986
987
984
988
989
986
983
986
990
988
986
986
982
988
987
989
986
983
984
985
988
989
989
984
985
987
990
992
987
985
982
984
988
990
988
984
983
984
989
987
981
981
984
982
985
983
983
982
980
981
986
985
984
982
977
982
985
986
980
977
978
982
982
982
982
980
980
980
981
978
977
977
979
979
979
982
981
977
974
979
982
981
980
977
976
978
979
980
976
974
975
980
981
982
983
978
974
978
982
981
978
979
977
978
979
978
977
974
976
981
983
981
982
978
977
978
982
981
980
978
979
981
982
979
982
979
980
981
983
984
977
978
979
982
983
983
980
979
976
980
985
984
980
979
980
980
981
984
984
977
978
981
987
988
987
985
985
990
993
994
994
995
996
998
998
998
998
997
998
999
1000
1000
999
998
995
997
994
992
987
984
982
984
986
988
984
985
985
986
989
988
988
985
982
988
990
991
991
990
992
995
997
998
991
981
974
970
973
983
1009
1059
1144
1253
1350
1422
1463
1465
1426
1332
1204
1076
948
931
947
959
963
961
958
960
964
976
988
997
1001
1000
998
1000
1003
1003
1007
1003
1004
1006
1009
1010
1008
1005
1007
1010
1012
1012
1011
1011
1007
1012
1015
1016
1014
1013
1014
1014
1017
1018
1018
1017
1016
1019
1020
1023
1022
1020
1022
1024
1029
1029
1025
1024
1024
1027
1029
1031
1032
1030
1028
1031
1037
1038
1037
1035
1034
1041
1046
1048
1049
1044
1050
1053
1052
1060
1062
1062
1062
1066
1070
1072
1076
1078
1079
1086
1089
1093
1099
1101
1105
1109
1120
1125
1131
1130
1136
1145
1154
1158
1159
1165
1168
1173
1184
1188
1191
1195
1200
1207
1212
1215
1212
1215
1214
1216
1213
1213
1204
1194
1186
1179
1169
1159
1147
1133
1122
1112
1103
1092
1079
1065
1054
1051
1046
1038
1025
1016
1014
1012
1012
1007
1004
996
993
996
996
995
992
987
988
988
988
988
989
983
981
982
988
989
984
984
978
985
987
987
986
985
983
986
986
988
984
983
984
985
988
989
984
980
982
985
988
989
986
984
983
984
988
987
986
981
982
986
990
987
985
984
982
983
984
984
984
981
977
982
981
985
981
979
978
982
983
984
980
975
976
980
982
980
975
975
975
978
979
979
978
974
975
977
978
979
978
974
973
978
981
980
979
975
976
977
981
979
979
978
975
978
982
981
979
977
978
978
981
982
981
976
976
978
981
981
981
976
976
977
979
983
978
974
976
977
980
980
976
976
976
979
979
981
980
977
977
979
982
982
977
977
981
979
982
981
981
979
981
983
986
983
981
979
978
980
983
981
980
975
980
982
983
984
982
981
982
986
989
991
988
989
990
990
993
993
992
992
993
997
997
995
993
992
993
993
996
992
991
987
983
982
984
985
981
979
977
981
985
986
984
983
982
983
986
983
983
981
981
987
989
991
990
987
989
986
985
979
969
964
960
962
977
1004
1046
1120
1207
1294
1370
1419
1442
1425
1360
1244
1116
988
933
933
950
961
957
959
952
952
955
961
973
983
991
992
993
993
998
1001
1000
998
997
1000
1003
1004
1004
1000
1004
1003
1006
1006
1004
1004
1002
1004
1007
1009
1006
1005
1008
1008
1008
1008
1011
1008
1005
1012
1011
1016
1015
1013
1013
1016
1017
1019
1016
1015
1016
1020
1023
1026
1022
1021
1021
1024
1026
1026
1026
1025
1023
1028
1034
1035
1035
1034
1035
1038
1044
1046
1044
1044
1046
1051
1053
1059
1057
1058
1062
1066
1072
1076
1073
1077
1081
1086
1091
1096
1098
1100
1109
1112
1118
1123
1127
1132
1135
1142
1149
1156
1157
1164
1168
1175
1181
1185
1187
1189
1195
1201
1205
1208
1209
1208
1207
1208
1206
1200
1194
1184
1177
1166
1157
1147
1136
1119
1109
1099
1090
1080
1064
1052
1044
1038
1032
1023
1019
1003
1001
1002
998
991
989
986
978
980
981
981
977
971
971
972
972
973
969
968
967
971
972
973
968
968
967
969
971
970
969
967
967
968
969
972
971
966
968
968
971
972
971
967
969
971
971
970
969
970
970
969
972
973
972
970
969
973
972
972
970
969
967
971
973
972
966
964
966
967
971
970
963
964
965
965
969
969
967
962
963
964
966
967
964
963
957
961
966
965
962
959
959
961
963
960
961
957
960
963
964
961
960
958
955
959
960
962
958
957
956
958
961
959
958
954
956
959
962
963
957
956
957
957
960
961
960
957
955
959
962
960
957
957
955
959
961
964
960
957
958
959
963
960
959
958
954
960
959
963
960
957
960
960
963
964
964
961
966
970
973
976
973
968
971
974
976
979
977
975
972
974
975
977
973
970
968
968
967
964
961
959
955
958
961
960
961
955
960
960
963
963
962
956
958
961
965
966
960
962
959
960
966
962
963
960
954
950
948
946
944
955
982
1035
1111
1202
1289
1359
1411
1430
1418
1351
1228
1100
972
899
912
929
935
929
928
928
932
938
946
951
960
967
971
971
970
967
965
970
971
971
971
967
967
972
976
974
972
968
967
976
976
976
975
973
974
977
980
981
979
976
974
981
983
984
979
978
977
979
984
986
984
980
980
983
988
989
985
982
984
987
991
992
992
989
991
995
999
1000
999
1000
1001
1004
1008
1010
1011
1010
1011
1014
1016
1021
1026
1025
1028
1034
1039
1042
1046
1045
1049
1056
1063
1066
1068
1071
1079
1084
1092
1097
1103
1105
1110
1116
1126
1132
1135
1138
1142
1150
1158
1162
1165
1167
1171
1175
1178
1180
1177
1169
1163
1156
1149
1143
1128
1115
1098
1090
1077
1065
1052
1034
1023
1014
1004
997
983
975
970
964
962
958
957
950
948
947
948
945
940
938
935
937
940
939
936
933
933
935
935
938
934
932
929
933
934
934
932
932
929
933
934
935
936
933
930
933
937
937
934
930
930
934
937
934
932
931
930
931
935
937
933
932
931
931
934
934
931
928
930
930
933
933
932
927
927
927
930
931
931
926
929
930
930
929
927
923
922
926
930
928
926
924
923
925
927
927
926
920
920
925
927
928
925
923
923
923
928
930
927
924
922
925
928
927
923
921
926
926
927
925
927
924
923
923
925
928
925
924
923
923
925
927
926
924
924
926
928
929
926
923
922
923
925
929
925
922
924
925
928
928
927
924
926
924
926
928
925
922
922
926
930
932
932
929
931
936
938
940
940
934
934
939
942
946
944
940
935
936
939
946
941
938
935
934
936
935
931
927
928
929
932
934
932
927
928
929
933
932
935
931
929
930
937
938
940
938
936
938
940
938
929
918
915
915
919
932
952
1000
1075
1174
1271
1345
1393
1403
1369
1283
1155
1027
899
875
893
904
907
908
906
908
914
926
935
942
942
941
941
945
948
948
947
946
944
948
952
952
951
949
948
951
956
957
953
952
952
955
960
959
957
955
953
959
961
962
961
960
958
959
965
961
964
961
963
966
971
970
968
964
967
971
974
975
974
974
974
977
981
984
982
982
985
986
990
993
992
986
993
999
1004
1004
1008
1007
1011
1014
1022
1025
1028
1027
1029
1037
1042
1050
1053
1054
1060
1066
1074
1080
1085
1087
1091
1100
1109
1114
1118
1121
1124
1129
1140
1144
1147
1148
1152
1157
1162
1162
1159
1155
1149
1144
1139
1129
1116
1102
1087
1078
1070
1059
1040
1026
1014
1008
1001
993
984
971
967
964
962
957
951
944
943
941
941
942
937
930
931
933
932
935
931
927
924
928
930
929
927
925
924
927
927
928
927
926
925
927
929
932
931
928
925
928
929
930
931
929
930
927
933
933
932
928
926
928
935
935
934
930
929
929
934
935
933
927
929
930
930
932
931
926
926
927
929
928
927
927
927
925
928
930
929
923
924
927
928
928
924
922
923
925
927
928
925
924
925
925
928
929
923
924
922
923
925
927
927
924
925
927
928
927
927
925
924
926
929
929
930
925
925
927
929
931
929
924
927
927
931
931
926
927
926
929
930
933
929
929
927
929
930
930
934
933
931
931
931
933
933
931
929
930
931
934
932
933
931
931
937
936
932
930
932
934
934
935
935
930
930
933
933
936
934
934
931
935
933
936
934
935
933
934
936
937
938
936
935
936
936
940
934
936
934
939
943
943
940
937
939
940
942
944
940
939
938
940
943
942
945
942
946
948
951
955
954
952
949
953
959
959
960
956
955
957
959
961
960
956
953
953
952
952
947
943
944
945
947
949
946
942
942
946
950
948
944
944
943
945
948
948
953
948
950
954
958
959
955
948
942
936
934
933
936
948
976
1027
1101
1181
1264
1325
1368
1386
1367
1291
1163
1035
922
901
916
925
921
915
916
919
925
932
939
943
948
955
960
958
960
955
957
960
964
965
966
964
959
963
967
968
966
965
964
968
971
972
971
966
968
969
971
970
972
971
972
975
978
979
978
973
973
977
979
982
978
978
980
982
986
987
985
984
987
989
991
995
994
993
994
996
1001
1004
1003
1000
1003
1007
1012
1013
1016
1015
1020
1024
1030
1032
1033
1033
1038
1045
1051
1053
1057
1058
1063
1069
1079
1084
1085
1091
1096
1105
1112
1117
1121
1123
1130
1138
1144
1148
1151
1153
1158
1163
1170
1175
1174
1172
1168
1170
1169
1160
1152
1139
1129
1117
1109
1098
1087
1071
1061
1050
1041
1033
1023
1013
1003
1000
997
991
987
981
976
978
975
974
968
964
962
964
966
966
964
960
957
962
963
963
960
960
958
958
961
963
963
960
959
961
964
965
963
960
961
966
967
968
965
960
964
965
970
970
967
963
966
967
973
972
972
968
970
972
973
973
972
969
967
969
970
969
968
965
967
971
972
971
971
968
968
970
975
975
970
969
970
969
973
975
973
969
969
972
974
974
971
966
970
971
975
976
975
972
971
972
974
976
972
974
973
976
978
977
977
974
972
973
976
979
975
973
975
978
979
981
981
976
972
976
977
979
981
976
976
977
982
983
981
978
979
980
985
987
984
981
982
983
988
988
986
983
981
986
989
988
987
986
987
989
990
992
992
991
990
992
998
997
999
997
999
1003
1006
1003
1005
1004
1005
1009
1012
1011
1008
1007
1006
1011
1009
1009
1004
1001
999
999
1001
1000
997
995
994
998
1002
1000
1000
999
998
1001
1005
1006
1003
1002
1001
1007
1012
1010
1012
1007
1010
1010
1010
1006
999
998
1000
1019
1050
1095
1162
1235
1302
1356
1381
1372
1326
1230
1113
1019
985
990
994
993
990
988
991
996
998
1000
1009
1018
1024
1026
1025
1022
1023
1025
1028
1029
1028
1025
1027
1030
1035
1033
1033
1031
1032
1035
1038
1040
1034
1035
1033
1036
1037
1038
1038
1035
1034
1041
1044
1044
1042
1040
1042
1043
1044
1046
1046
1047
1047
1048
1054
1053
1052
1053
1054
1059
1061
1063
1062
1060
1062
1063
1071
1072
1073
1072
1073
1076
1083
1087
1087
1087
1091
1099
1103
1109
1112
1116
1116
1128
1137
1143
1149
1155
1162
1171
1182
1188
1196
1199
1206
1213
1222
1226
1226
1224
1220
1220
1216
1203
1193
1178
1165
1150
1138
1126
1111
1096
1084
1076
1070
1061
1050
1043
1039
1035
1034
1032
1028
1023
1021
1022
1022
1021
1018
1016
1015
1017
1016
1018
1012
1009
1009
1013
1015
1016
1015
1012
1012
1012
1017
1015
1016
1011
1012
1012
1015
1016
1013
1013
1013
1016
1019
1020
1017
1014
1013
1017
1020
1019
1015
1010
1011
1013
1018
1018
1016
1010
1010
1014
1013
1014
1013
1009
1009
1009
1012
1014
1012
1009
1008
1009
1013
1011
1009
1006
1005
1007
1010
1009
1005
1006
1001
1005
1006
1007
1003
1002
1002
1004
1007
1008
1005
1005
1003
1003
1007
1007
1005
1000
1000
1004
1008
1006
1007
1002
1001
1002
1006
1003
1002
1000
998
1004
1005
1005
1004
1003
999
1000
1006
1006
1003
999
1001
1005
1006
1005
1005
1001
1000
1003
1004
1004
1003
998
997
999
1001
1000
1000
997
1000
998
1003
1002
1001
997
996
998
1001
1001
1001
997
995
996
1001
1003
999
998
998
1001
1004
1004
1003
1000
998
1000
1003
1001
1003
1000
998
1002
1003
1006
1002
999
998
1002
1003
1002
1001
999
998
1001
1005
1006
1005
1006
1006
1012
1016
1016
1015
1013
1013
1015
1017
1017
1013
1010
1010
1013
1016
1016
1012
1008
1003
1005
1003
1004
1001
997
997
998
999
996
998
997
995
998
1000
1003
1003
1000
1002
1004
1008
1007
1006
1005
1006
1005
1006
1001
995
988
986
994
1010
1040
1084
1146
1224
1297
1351
1375
1371
1336
1262
1149
1042
977
963
972
975
976
976
976
977
977
984
992
1002
1004
1007
1005
1007
1005
1009
1009
1008
1007
1005
1007
1012
1011
1009
1007
1008
1011
1013
1014
1007
1007
1009
1010
1013
1014
1013
1009
1011
1016
1018
1017
1015
1013
1016
1015
1018
1019
1018
1013
1016
1019
1024
1024
1022
1020
1018
1023
1026
1026
1024
1022
1024
1028
1030
1032
1027
1028
1031
1035
1038
1039
1040
1041
1042
1047
1049
1050
1048
1050
1053
1058
1061
1064
1068
1065
1066
1072
1080
1081
1084
1090
1093
1098
1105
1109
1110
1113
1118
1123
1127
1131
1136
1140
1142
1150
1156
1160
1160
1165
1168
1175
1179
1181
1182
1183
1185
1189
1191
1189
1183
1178
1172
1166
1162
1152
1142
1128
1119
1110
1102
1092
1079
1067
1056
1045
1042
1037
1026
1013
1008
1004
1002
996
989
985
981
980
980
974
973
965
967
967
968
965
964
961
957
959
961
961
962
957
957
959
962
962
958
955
957
958
961
959
958
957
956
958
961
960
959
956
953
954
957
959
956
955
952
957
959
956
957
952
952
956
959
958
954
952
953
956
958
957
954
949
951
953
956
955
952
951
949
950
954
952
952
949
946
947
947
950
949
945
945
949
949
949
948
945
941
943
949
949
947
945
941
941
944
947
942
942
941
943
947
943
943
940
939
942
945
944
941
940
938
942
943
943
942
937
936
940
941
944
941
937
935
939
943
941
938
935
937
939
945
944
939
940
938
940
943
941
941
936
938
937
943
943
941
938
938
940
940
941
939
935
936
940
942
940
940
938
937
940
941
941
938
934
935
936
939
938
938
937
933
936
941
942
939
937
936
939
940
944
942
938
935
938
937
938
939
937
938
938
939
942
940
938
938
943
944
945
947
947
947
952
954
955
954
951
954
957
960
958
955
954
953
956
957
957
951
948
946
944
946
946
942
941
937
941
945
944
941
938
939
944
946
944
945
942
942
944
945
947
947
948
947
948
946
942
935
926
922
924
936
956
995
1053
1136
1231
1312
1373
1400
1399
1361
1272
1144
1016
903
883
899
915
918
916
913
914
918
926
937
948
950
952
951
954
957
957
955
952
952
955
959
959
960
956
957
960
964
963
961
958
959
964
966
966
963
964
961
965
967
967
968
966
966
970
974
974
973
969
970
971
978
979
976
975
974
977
981
980
982
977
977
983
988
989
986
986
985
987
994
996
991
993
994
998
999
1004
1003
1002
1006
1009
1014
1016
1015
1020
1020
1022
1028
1035
1036
1036
1040
1045
1052
1057
1057
1059
1064
1072
1077
1083
1088
1088
1093
1099
1110
1111
1113
1119
1123
1128
1139
1145
1143
1148
1152
1160
1165
1168
1167
1168
1165
1164
1162
1157
1150
1140
1130
1122
1113
1102
1090
1074
1063
1055
1045
1035
1022
1011
999
994
986
980
971
965
959
956
956
952
948
944
941
941
942
942
937
934
930
935
933
935
935
932
930
930
933
932
933
929
930
933
935
935
932
929
927
931
934
934
930
929
932
932
934
933
934
932
932
933
936
935
934
932
931
932
932
933
933
931
929
933
933
935
934
930
931
931
934
933
930
930
928
930
932
932
928
925
927
928
930
927
929
924
924
927
928
929
927
927
924
926
929
930
929
926
925
927
930
928
925
925
925
928
927
927
929
925
923
925
929
928
926
926
923
928
929
925
924
922
922
925
925
927
927
923
927
927
928
929
929
927
925
928
931
928
929
927
927
928
929
930
926
925
928
927
930
931
930
927
927
929
931
931
928
929
928
930
933
932
932
930
929
930
935
935
934
931
930
935
937
935
931
931
932
932
935
935
936
932
930
933
937
938
935
932
934
935
939
940
938
933
931
936
939
940
937
936
934
938
942
946
944
945
944
948
950
950
951
951
953
956
959
959
954
952
952
954
956
955
950
947
945
945
945
943
941
938
941
942
942
944
943
942
938
944
948
948
948
945
946
950
951
953
951
951
953
950
951
940
934
926
927
932
945
973
1023
1097
1189
1284
1358
1400
1404
1353
1246
1118
990
894
893
910
920
920
918
921
921
924
932
942
955
960
962
959
960
966
967
965
965
965
963
968
967
973
971
968
967
969
974
976
972
967
970
976
979
980
977
976
975
975
980
981
980
979
977
982
982
983
983
980
982
986
991
990
986
987
987
990
995
995
993
993
996
1000
1004
1005
1004
1006
1007
1011
1014
1018
1018
1022
1025
1029
1039
1043
1042
1043
1046
1057
1065
1066
1068
1069
1074
1087
1095
1100
1102
1106
1109
1117
1127
1132
1135
1139
1144
1153
1157
1164
1166
1167
1174
1179
1182
1185
1184
1179
1175
1170
1166
1157
1143
1133
1123
1115
1098
1091
1074
1060
1047
1038
1030
1020
1007
997
990
986
984
979
973
969
967
967
967
962
958
955
954
955
957
954
952
950
950
952
953
953
951
952
949
950
956
952
951
950
950
951
953
954
949
948
947
951
955
954
950
951
949
952
955
958
952
948
950
952
954
956
954
949
950
954
955
952
950
949
951
954
955
954
951
949
949
947
951
952
951
949
950
951
955
953
951
947
947
948
953
952
947
944
945
947
950
951
946
943
945
947
952
948
946
943
945
945
950
950
946
945
944
947
949
949
948
943
945
944
948
949
945
944
945
945
948
948
948
946
946
946
949
947
944
947
948
950
952
953
951
950
948
952
954
956
952
950
948
950
952
954
952
948
952
953
951
953
951
950
948
950
953
956
957
956
960
964
966
969
967
967
966
969
974
977
975
972
969
971
973
970
967
965
965
964
962
959
956
956
954
954
958
957
955
950
954
956
959
956
956
955
953
956
959
958
958
957
956
962
964
966
961
954
948
942
939
941
941
956
990
1057
1142
1234
1317
1377
1413
1416
1366
1248
1120
992
895
907
929
933
928
922
924
932
941
948
956
964
966
970
971
970
968
967
968
967
974
975
973
972
971
975
979
981
978
974
976
980
982
983
982
981
979
983
984
982
981
981
984
986
990
990
988
987
990
993
995
995
994
992
992
994
1000
1000
998
997
1000
1002
1007
1006
1006
1007
1008
1013
1020
1021
1021
1022
1022
1027
1031
1033
1037
1039
1042
1048
1053
1058
1059
1061
1066
1073
1080
1086
1088
1093
1098
1104
1114
1122
1125
1126
1132
1139
1149
1156
1157
1159
1162
1168
1175
1180
1181
1183
1181
1184
1185
1182
1176
1164
1150
1146
1136
1123
1108
1092
1078
1067
1058
1045
1031
1017
1009
999
995
989
985
977
973
970
969
967
966
960
960
960
960
959
959
953
953
954
956
955
952
951
951
954
956
956
954
952
951
954
956
956
952
952
954
953
956
957
956
953
954
956
956
957
954
954
955
954
958
959
957
956
953
954
958
960
953
953
954
956
958
956
951
952
953
953
957
957
955
951
947
948
955
954
953
949
951
951
953
953
951
948
951
952
953
954
952
947
948
950
952
948
948
948
949
949
952
952
951
947
948
950
953
952
946
946
946
950
953
952
951
950
948
951
953
954
951
949
951
952
955
955
951
948
949
949
950
949
949
949
948
949
954
954
952
948
950
954
954
955
952
949
952
955
959
960
960
957
962
966
968
970
970
966
968
970
973
976
975
971
969
971
973
969
968
964
965
963
963
961
956
955
954
957
960
957
957
955
952
955
959
959
958
954
958
959
961
962
960
959
959
962
964
962
958
949
942
938
941
949
966
1003
1072
1167
1267
1345
1403
1427
1413
1351
1235
1107
979
901
907
928
937
931
927
927
933
940
954
961
966
971
973
971
971
974
973
970
972
974
978
980
978
976
976
979
982
983
980
977
977
980
984
984
980
981
980
985
988
985
987
983
987
987
990
990
992
987
991
993
995
992
990
991
989
990
998
1000
998
996
995
1002
1004
1005
1005
1005
1006
1011
1012
1013
1019
1017
1018
1023
1026
1033
1031
1033
1034
1041
1045
1048
1047
1050
1054
1061
1067
1071
1075
1077
1080
1088
1096
1101
1105
1108
1112
1120
1129
1132
1135
1134
1141
1151
1159
1161
1164
1168
1172
1178
1184
1189
1188
1185
1183
1183
1182
1174
1165
1151
1142
1131
1122
1110
1096
1081
1066
1058
1052
1040
1029
1015
1007
1000
998
991
983
978
974
973
971
967
966
961
958
960
960
961
956
954
951
952
954
955
952
951
949
953
956
954
950
949
950
954
958
955
954
952
952
956
957
958
956
955
953
956
959
959
954
952
953
957
959
955
952
949
955
957
958
958
955
952
950
953
955
956
953
950
950
953
954
952
951
950
947
951
951
950
947
944
947
949
952
948
948
944
945
947
948
948
947
947
946
948
950
946
946
942
944
945
948
947
946
944
941
944
948
946
944
946
940
943
948
948
947
944
942
943
947
948
946
940
938
944
949
947
946
941
941
945
946
946
946
941
942
943
947
948
946
943
940
944
946
946
943
943
941
944
946
947
946
943
940
945
946
945
948
943
944
944
946
947
947
939
943
945
948
947
944
942
944
947
947
949
948
946
945
943
946
946
946
945
945
946
951
952
948
947
948
949
953
951
952
949
946
953
960
959
960
961
960
961
966
969
969
966
963
962
966
968
966
963
958
961
961
958
952
949
950
952
953
954
955
950
951
953
955
955
952
953
951
954
959
960
960
955
953
950
940
936
941
961
1023
1136
1263
1380
1435
1413
1302
1174
1046
918
902
931
933
931
931
938
951
962
965
966
970
970
967
968
967
969
975
975
973
973
971
975
976
978
976
974
977
979
981
979
979
978
978
979
983
984
984
986
982
987
988
991
987
985
986
990
995
996
994
991
991
995
1002
1002
1004
1001
1002
1008
1010
1013
1011
1011
1015
1016
1024
1024
1021
1025
1027
1031
1037
1039
1041
1044
1048
1055
1057
1063
1066
1066
1072
1076
1086
1091
1095
1099
1102
1109
1118
1125
1130
1132
1137
1145
1151
1157
1158
1161
1168
1175
1182
1184
1184
1184
1184
1185
1184
1181
1172
1162
1150
1142
1134
1123
1108
1094
1081
1068
1057
1046
1033
1023
1015
1006
1004
996
990
983
978
978
979
977
971
965
963
967
967
967
964
959
961
963
965
962
963
958
961
959
961
962
961
960
957
961
966
966
964
963
962
963
966
965
964
961
962
963
964
963
962
960
961
964
965
966
965
963
962
965
967
965
965
962
961
964
966
962
964
960
960
959
962
964
962
960
958
958
963
965
958
960
960
961
964
964
959
960
959
960
961
961
960
956
957
957
960
962
958
957
957
960
965
961
959
957
956
960
959
960
961
957
955
958
959
962
961
958
958
959
963
963
961
957
959
958
962
960
960
956
956
959
962
960
959
960
957
960
962
963
961
958
958
956
963
963
962
959
959
960
965
964
959
959
957
960
964
964
960
960
958
963
964
965
964
963
963
963
968
969
965
962
962
964
966
967
965
963
964
967
970
968
968
964
964
963
968
969
969
966
966
967
972
970
969
966
968
969
974
977
974
974
973
979
979
979
978
981
983
987
989
985
983
980
981
982
984
984
982
977
974
973
974
976
972
972
969
972
976
978
975
975
975
975
978
980
978
977
975
978
985
986
985
981
980
977
972
967
960
958
971
1003
1059
1143
1235
1322
1389
1433
1443
1400
1301
1173
1045
922
920
941
952
949
945
944
950
954
962
967
980
985
992
990
990
991
991
994
996
998
997
991
991
996
1002
1000
999
997
998
1002
1004
1003
1000
1002
998
1004
1007
1008
1007
1005
1006
1006
1010
1012
1010
1010
1010
1015
1016
1017
1015
1015
1014
1019
1021
1021
1016
1015
1018
1022
1026
1028
1027
1025
1027
1030
1036
1038
1037
1038
1035
1041
1047
1047
1048
1049
1051
1054
1060
1061
1064
1066
1071
1076
1080
1084
1087
1088
1091
1100
1104
1109
1110
1113
1118
1125
1130
1134
1138
1140
1145
1153
1156
1162
1167
1167
1173
1179
1185
1189
1192
1195
1199
1202
1206
1208
1205
1197
1199
1198
1194
1186
1175
1162
1150
1145
1133
1123
1106
1094
1083
1076
1069
1058
1046
1034
1026
1021
1019
1014
1004
998
996
993
993
990
986
982
980
981
984
983
978
977
973
975
976
976
975
971
971
971
974
976
973
968
972
973
976
974
974
970
971
972
976
976
977
975
972
975
977
978
975
973
971
973
980
977
976
974
974
975
976
977
975
973
973
974
976
976
975
972
972
974
975
974
972
972
971
971
973
973
971
969
970
970
972
973
971
966
968
970
972
971
970
963
967
969
968
968
968
965
964
969
969
967
968
966
965
967
970
970
968
962
963
967
969
970
966
965
964
965
969
970
966
966
965
968
971
970
968
965
964
967
970
970
969
965
965
969
968
972
969
966
967
972
973
973
970
967
967
970
972
972
972
970
970
973
977
977
978
975
980
981
983
986
985
984
986
990
992
989
988
983
985
987
987
985
980
978
972
973
974
974
971
969
969
971
973
971
971
968
971
973
976
974
974
970
970
972
974
975
974
972
975
977
975
975
968
961
956
953
957
961
976
1011
1080
1168
1262
1341
1400
1427
1419
1368
1265
1137
1009
922
916
935
946
943
940
937
939
946
953
964
967
973
981
985
988
987
987
982
983
987
992
991
991
986
986
990
993
993
989
987
990
992
996
995
993
993
991
994
996
995
994
994
991
995
999
1000
995
995
997
996
1000
1003
999
1003
1000
1001
1010
1008
1009
1008
1008
1008
1012
1016
1017
1011
1015
1017
1023
1025
1019
1020
1022
1028
1030
1033
1032
1030
1035
1038
1042
1044
1042
1047
1048
1052
1058
1061
1062
1065
1070
1075
1085
1087
1087
1091
1096
1104
1113
1116
1120
1122
1127
1134
1139
1146
1149
1152
1157
1164
1170
1172
1179
1179
1179
1188
1194
1194
1189
1186
1187
1187
1183
1174
1164
1153
1144
1133
1122
1113
1097
1083
1072
1063
1053
1043
1032
1020
1013
1007
1002
996
988
980
976
975
977
973
969
965
963
964
964
961
957
953
954
958
960
959
952
950
951
954
957
955
954
952
947
955
956
957
954
953
951
953
958
954
954
952
953
955
957
956
954
953
955
959
960
960
956
954
954
956
960
960
955
955
954
957
960
957
955
950
949
955
958
956
952
949
950
950
955
954
950
948
947
949
952
951
950
944
947
951
953
951
946
946
944
946
947
947
946
941
941
945
946
946
944
942
943
944
949
946
945
942
944
945
949
946
942
939
942
941
944
945
942
940
938
940
946
946
943
940
938
941
947
947
943
938
937
943
945
943
944
941
941
943
946
944
939
937
938
940
942
943
940
937
935
940
945
943
941
940
939
943
944
939
940
936
937
942
944
943
938
939
940
942
946
944
940
938
940
946
949
949
951
950
950
953
959
961
957
956
955
959
964
966
963
960
957
962
965
963
959
955
953
952
956
953
950
948
947
950
950
952
949
949
951
953
956
955
955
953
955
958
959
960
960
961
962
963
963
958
950
944
940
939
950
971
1011
1076
1168
1269
1354
1413
1436
1419
1351
1223
1095
967
900
915
935
943
943
942
943
947
958
971
982
988
987
987
985
988
990
991
993
990
989
994
1000
1001
999
996
1000
1002
1007
1006
1006
1005
1006
1009
1011
1012
1014
1011
1011
1013
1020
1017
1018
1017
1020
1021
1025
1026
1025
1023
1026
1030
1033
1036
1034
1033
1035
1040
1042
1042
1043
1039
1045
1050
1055
1057
1058
1056
1058
1062
1066
1069
1071
1072
1073
1080
1085
1089
1091
1092
1097
1102
1107
1110
1113
1116
1121
1127
1133
1139
1144
1146
1149
1159
1168
1169
1176
1179
1184
1191
1197
1203
1208
1211
1215
1222
1230
1237
1238
1239
1241
1244
1249
1246
1243
1235
1226
1223
1216
1203
1189
1176
1161
1155
1150
1134
1123
1110
1098
1095
1090
1087
1075
1070
1063
1062
1063
1058
1055
1049
1050
1049
1052
1051
1048
1046
1045
1047
1050
1047
1044
1044
1046
1046
1049
1049
1049
1044
1046
1049
1052
1052
1049
1048
1050
1055
1054
1053
1055
1053
1053
1054
1057
1059
1059
1056
1058
1059
1064
1063
1062
1059
1060
1063
1066
1068
1067
1064
1063
1066
1070
1070
1067
1065
1065
1070
1071
1070
1068
1066
1066
1067
1071
1068
1068
1067
1066
1071
1073
1071
1070
1069
1067
1071
1076
1075
1072
1072
1071
1075
1077
1077
1075
1074
1072
1073
1078
1080
1077
1075
1074
1077
1081
1080
1078
1075
1077
1078
1082
1083
1080
1080
1078
1082
1088
1086
1083
1083
1081
1082
1086
1088
1086
1085
1086
1087
1091
1093
1091
1086
1086
1089
1091
1094
1090
1088
1088
1091
1095
1093
1091
1091
1090
1094
1096
1095
1091
1092
1092
1093
1099
1098
1096
1095
1096
1099
1101
1099
1097
1097
1097
1102
1103
1100
1097
1098
1099
1101
1105
1106
1099
1099
1100
1105
1107
1105
1105
1103
1098
1102
1106
1101
1103
1103
1105
1107
1108
1110
1104
1104
1108
1111
1114
1115
1115
1113
1114
1118
1126
1125
1118
1118
1122
1126
1128
1127
1122
1121
1121
1123
1128
1125
1122
1116
1116
1118
1116
1114
1111
1110
1112
1106
1111
1114
1115
1108
1111
1115
1118
1118
1116
1111
1112
1115
1117
1114
1113
1116
1117
1119
1120
1115
1107
1097
1092
1093
1096
1106
1128
1169
1235
1316
1393
1450
1479
1484
1468
1418
1316
1188
1069
1045
1068
1093
1099
1091
1091
1092
1096
1110
1124
1130
1129
1131
1132
1135
1137
1138
1135
1132
1135
1137
1138
1138
1139
1137
1137
1138
1142
1142
1140
1138
1137
1140
1142
1142
1141
1140
1136
1140
1140
1144
1141
1139
1137
1145
1148
1145
1145
1142
1144
1143
1145
1147
1143
1144
1142
1149
1153
1152
1150
1149
1150
1154
1157
1159
1155
1154
1160
1160
1166
1166
1168
1168
1169
1173
1177
1181
1182
1182
1184
1188
1194
1193
1201
1201
1204
1209
1216
1222
1225
1229
1233
1238
1246
1249
1256
1257
1257
1266
1272
1278
1281
1285
1284
1291
1300
1302
1303
1301
1298
1298
1295
1285
1272
1260
1252
1243
1233
1221
1205
1192
1179
1171
1166
1154
1141
1129
1127
1121
1119
1115
1109
1105
1101
1099
1101
1097
1090
1089
1085
1084
1086
1087
1082
1080
1079
1083
1084
1078
1076
1074
1075
1075
1079
1076
1075
1072
1072
1075
1076
1073
1070
1069
1071
1072
1076
1076
1070
1068
1070
1074
1071
1069
1066
1067
1066
1071
1071
1072
1070
1067
1066
1070
1067
1070
1063
1063
1062
1064
1064
1065
1060
1057
1055
1059
1061
1060
1055
1054
1054
1056
1058
1059
1053
1051
1052
1052
1054
1055
1047
1049
1047
1047
1049
1048
1045
1044
1046
1046
1050
1046
1046
1041
1041
1043
1044
1041
1041
1037
1038
1040
1043
1041
1038
1032
1038
1039
1043
1039
1038
1036
1035
1033
1040
1037
1033
1032
1033
1038
1038
1037
1033
1031
1031
1033
1035
1032
1031
1029
1028
1032
1035
1031
1030
1028
1027
1030
1031
1029
1027
1026
1026
1025
1029
1028
1023
1022
1021
1020
1022
1022
1019
1018
1019
1020
1021
1023
1020
1018
1019
1019
1023
1022
1021
1017
1020
1018
1023
1021
1018
1016
1019
1021
1025
1023
1023
1021
1023
1024
1025
1025
1022
1026
1022
1027
1026
1026
1023
1024
1019
1019
1022
1018
1015
1009
1009
1011
1011
1010
1008
1007
1005
1007
1010
1008
1005
1005
1006
1005
1011
1009
1007
1006
1004
1006
1010
1007
1004
996
986
982
982
981
986
1005
1047
1121
1206
1288
1344
1369
1368
1334
1253
1125
997
922
935
964
977
971
964
962
969
976
989
996
1005
1005
1007
1008
1009
1008
1007
1004
1006
1008
1010
1011
1007
1004
1008
1009
1013
1010
1010
1009
1009
1010
1016
1016
1014
1013
1012
1016
1017
1017
1014
1013
1014
1015
1020
1016
1014
1016
1015
1018
1019
1022
1019
1015
1016
1022
1024
1025
1024
1022
1021
1025
1029
1030
1030
1030
1028
1032
1039
1038
1038
1039
1040
1041
1049
1050
1049
1051
1054
1058
1065
1068
1069
1072
1076
1083
1090
1094
1098
1099
1102
1110
1118
1121
1124
1128
1133
1140
1147
1154
1155
1155
1160
1165
1173
1173
1171
1172
1168
1167
1165
1157
1146
1131
1122
1111
1100
1087
1071
1056
1042
1037
1030
1018
1007
998
991
987
985
981
973
968
965
967
966
964
959
956
953
956
956
954
951
945
946
948
947
949
944
940
942
944
947
945
943
940
940
940
945
945
941
938
939
940
943
942
940
936
933
936
940
942
939
937
940
942
944
940
939
936
937
938
939
936
936
934
932
932
936
935
929
931
929
931
934
933
927
926
922
927
930
928
925
922
922
922
926
927
923
921
920
924
923
923
919
917
916
920
921
922
919
915
915
918
920
919
918
915
913
915
917
918
918
913
910
911
915
916
912
907
907
909
908
910
908
908
906
909
913
910
906
906
905
910
910
911
908
906
906
908
906
910
908
908
906
914
918
920
917
915
915
921
924
922
916
911
914
914
918
913
908
903
902
900
906
902
899
896
897
898
902
902
898
897
897
897
901
901
897
901
901
904
903
905
902
894
889
883
878
876
878
889
926
983
1063
1150
1225
1283
1315
1316
1279
1185
1057
929
836
829
853
867
863
855
859
864
874
880
889
896
903
909
910
910
909
905
906
909
912
912
910
907
909
913
914
914
912
911
909
914
918
916
913
912
913
915
920
920
917
914
915
917
921
924
919
920
920
924
927
926
922
917
923
925
926
926
928
923
926
929
931
934
933
929
931
935
939
940
939
937
939
945
951
950
948
950
953
957
961
964
965
964
966
971
978
981
983
984
990
997
1002
1007
1009
1009
1017
1022
1030
1034
1035
1040
1042
1049
1054
1066
1066
1065
1073
1079
1087
1089
1092
1093
1096
1100
1105
1101
1096
1093
1085
1079
1075
1066
1052
1037
1028
1021
1010
996
984
973
960
954
946
936
927
918
911
907
904
899
892
884
883
883
882
879
873
870
870
872
872
867
867
865
866
867
867
866
862
862
860
864
865
866
863
858
860
864
866
866
863
861
860
863
867
864
864
