972
972
972
972
972
972
972
972
972
974
976
979
982
984
984
984
988
990
993
991
990
989
990
991
992
990
989
987
989
990
991
989
984
983
982
982
982
979
976
974
975
975
974
973
970
966
963
962
963
963
962
962
962
965
964
960
959
959
960
963
966
965
966
963
965
967
965
965
964
963
967
967
968
967
966
965
965
968
969
971
973
972
975
977
977
976
976
973
974
975
975
973
972
971
972
970
969
966
964
963
962
963
966
967
964
964
965
967
967
968
966
963
964
964
963
961
957
955
956
958
959
959
958
959
961
964
963
961
957
957
959
962
963
960
958
958
962
963
962
960
957
958
961
963
971
976
982
986
990
998
1008
1025
1044
1061
1085
1110
1140
1165
1177
1191
1202
1198
1174
1139
1099
1054
1018
998
988
980
978
977
981
981
980
977
973
971
969
969
965
964
963
962
964
961
959
955
957
956
960
965
967
965
961
960
959
959
959
957
959
957
960
960
962
962
964
968
973
977
982
983
984
983
981
985
985
983
982
981
982
985
989
991
989
991
992
992
992
991
990
987
984
986
988
989
991
989
990
991
990
989
986
985
983
985
982
983
981
979
979
980
978
974
971
966
967
969
969
964
958
957
962
968
971
973
974
973
970
972
974
976
976
976
981
981
980
977
976
972
973
973
972
973
972
971
973
973
971
970
969
968
971
970
971
969
969
966
965
964
966
965
963
961
961
962
963
963
965
960
958
958
958
957
954
956
959
963
965
964
960
954
952
955
961
966
966
965
957
957
960
965
966
967
969
968
970
971
967
967
970
969
966
964
962
961
960
963
966
968
967
966
966
966
965
963
962
966
970
973
974
968
961
954
951
952
955
957
955
959
962
965
964
967
970
971
972
966
966
967
971
971
976
978
976
970
968
967
970
975
979
981
981
977
975
973
972
969
965
964
968
971
977
982
985
988
1000
1016
1044
1071
1094
1119
1148
1171
1194
1213
1220
1202
1168
1124
1078
1033
1000
975
958
954
964
977
983
985
984
985
984
982
981
978
977
978
980
979
976
974
977
976
975
975
973
973
973
974
974
974
976
976
977
980
979
978
980
983
986
988
988
987
981
982
988
991
996
999
998
1000
1000
1002
1002
1003
1004
1005
1006
1007
1009
1007
1007
1006
1011
1014
1015
1013
1012
1012
1015
1015
1019
1019
1018
1019
1019
1022
1023
1024
1022
1023
1023
1022
1021
1018
1014
1009
1012
1010
1010
1008
1006
1002
1006
1005
1005
1002
996
995
992
995
993
994
992
992
992
994
996
994
993
990
994
996
999
998
996
993
996
999
998
997
995
993
995
998
999
997
997
997
999
1002
1002
1005
1001
1001
1002
1005
1003
1001
998
997
999
998
999
996
994
994
995
997
997
993
992
989
993
994
993
992
989
989
992
992
992
992
992
990
993
995
993
989
990
990
993
996
995
992
988
988
989
993
993
993
993
991
992
995
995
993
994
993
996
997
997
994
992
989
991
995
996
993
989
986
989
991
992
988
985
984
987
989
988
987
986
986
988
988
990
991
988
986
990
992
991
989
989
989
990
990
990
989
988
986
990
992
993
992
990
991
994
997
995
990
987
987
991
990
992
990
988
985
988
996
999
1003
1005
1009
1017
1029
1047
1068
1089
1112
1141
1166
1188
1207
1225
1235
1232
1211
1176
1135
1090
1051
1024
1005
993
985
986
993
1001
1003
1003
998
995
991
991
992
992
990
986
986
988
990
989
987
988
986
987
989
989
990
989
987
988
993
994
992
991
990
992
995
993
992
990
991
992
994
995
995
994
993
995
996
997
995
995
994
997
1000
999
999
997
996
999
1001
998
999
997
998
999
1003
1004
1004
1006
1008
1013
1016
1018
1016
1015
1016
1019
1020
1022
1021
1019
1017
1019
1018
1016
1013
1009
1007
1007
1009
1006
1004
998
997
996
996
995
994
991
990
991
993
990
990
989
989
990
993
992
991
989
990
992
992
990
990
986
987
986
987
986
987
985
984
985
985
987
988
988
991
990
992
991
992
992
992
994
996
995
995
992
989
991
992
991
989
990
987
989
990
989
988
985
985
987
988
991
988
986
985
985
987
988
986
985
982
985
986
986
983
986
982
986
986
985
983
983
981
982
985
985
983
983
981
980
982
980
980
978
980
984
987
991
994
996
1000
1004
1007
1012
1024
1039
1057
1078
1097
1119
1144
1162
1178
1194
1206
1206
1191
1169
1142
1110
1074
1044
1024
1011
1003
1000
1001
1003
1002
997
993
991
990
991
988
985
984
984
984
982
981
982
981
981
982
979
979
976
976
975
976
976
974
972
972
974
973
973
971
969
966
967
967
965
962
961
964
971
974
977
977
977
979
983
988
990
990
989
988
991
995
994
995
997
996
996
997
999
999
1000
1001
1001
1003
1004
1003
1003
1002
1004
1005
1007
1004
1004
1003
1005
1006
1005
1003
1001
999
1000
1000
996
994
989
987
987
986
982
980
978
978
976
973
972
967
964
966
968
968
971
967
972
979
984
988
991
992
990
992
993
993
993
992
992
994
994
993
991
989
988
992
992
994
991
991
991
990
991
990
988
988
988
990
990
987
984
980
980
980
982
981
979
976
975
977
978
975
971
968
967
967
968
965
963
963
962
965
967
969
971
971
974
979
985
986
985
984
982
982
984
984
983
981
981
985
984
988
986
986
985
985
985
983
984
982
981
982
983
983
982
979
980
981
983
981
978
978
978
978
978
977
974
971
972
973
974
973
971
969
967
969
970
972
969
968
969
971
974
976
978
980
982
986
988
989
986
988
989
989
990
989
988
987
986
988
989
989
989
984
986
989
990
989
987
988
987
991
992
990
989
988
988
993
997
999
1004
1005
1008
1017
1031
1051
1072
1092
1117
1146
1171
1193
1212
1226
1229
1212
1179
1134
1086
1044
1016
997
982
968
961
963
970
977
978
978
977
975
975
975
976
974
974
974
975
977
979
980
978
976
974
975
977
977
974
974
974
977
976
977
978
975
974
977
977
977
978
977
977
980
981
981
979
978
979
981
982
983
982
981
982
985
989
990
989
990
987
993
993
993
993
994
996
997
997
998
996
997
997
998
998
998
997
998
1001
1006
1010
1011
1011
1008
1007
1011
1011
1011
1008
1008
1008
1007
1009
1007
1003
1000
998
1000
999
997
996
993
991
990
990
991
989
986
983
983
986
983
983
982
982
985
985
985
984
980
977
981
986
988
988
985
984
986
990
992
991
988
989
992
992
991
989
985
984
984
985
984
983
979
978
980
986
988
987
986
984
986
988
988
987
983
982
983
982
981
980
976
975
976
980
980
981
979
978
979
979
980
979
976
975
979
980
981
982
981
977
981
981
982
981
981
980
981
983
986
985
986
983
987
988
987
986
985
983
981
983
982
982
979
981
983
983
983
980
976
976
981
984
988
994
998
1008
1023
1047
1070
1087
1105
1127
1154
1172
1186
1202
1209
1201
1177
1152
1116
1075
1041
1019
1007
997
993
995
996
998
1000
998
993
990
987
984
981
984
983
983
980
979
979
983
981
981
979
979
979
981
981
979
977
974
976
977
978
977
977
974
974
973
974
973
971
970
971
975
975
976
976
976
977
979
982
980
979
980
984
987
991
991
990
994
995
997
997
999
997
997
996
999
1000
998
996
994
996
1001
1003
1001
1001
999
1001
1002
999
996
994
993
992
990
990
987
984
980
979
979
977
976
973
971
969
970
970
969
967
966
966
968
965
965
963
963
962
966
969
972
971
974
979
981
984
986
984
986
990
993
994
993
990
991
993
994
993
992
989
990
991
990
989
991
991
988
987
990
987
986
984
983
983
981
982
981
980
978
979
980
980
979
977
974
975
976
974
972
969
966
966
967
966
964
963
961
962
962
964
960
961
960
962
967
973
982
989
997
1009
1026
1042
1056
1070
1087
1108
1129
1144
1156
1167
1169
1164
1148
1124
1089
1051
1020
1005
997
989
982
980
981
983
981
979
974
971
969
969
968
970
967
965
964
964
965
964
960
960
961
964
964
962
962
958
960
961
961
961
960
959
961
960
964
966
964
962
961
964
966
964
965
966
968
973
978
979
977
975
977
980
981
981
979
979
982
984
985
986
985
986
985
986
990
989
991
992
994
998
998
997
998
997
996
999
1001
1000
997
994
992
992
991
989
984
982
979
981
982
981
975
972
972
969
971
969
967
965
964
965
967
966
966
965
967
968
972
970
970
967
967
969
970
969
967
964
964
966
969
967
966
965
967
970
971
969
969
968
969
969
972
972
969
966
969
972
973
973
971
970
972
970
971
972
968
965
969
971
973
972
968
964
965
966
968
966
965
963
965
965
969
967
966
965
965
968
968
968
968
968
967
971
973
971
969
966
963
967
968
968
967
966
963
966
969
969
968
967
966
966
970
968
969
967
966
969
971
969
971
970
970
971
972
970
970
967
965
966
966
966
964
963
962
962
962
962
963
961
961
961
962
962
960
960
959
960
961
959
960
957
960
964
966
968
973
970
971
971
973
970
970
967
968
969
970
968
967
966
964
964
964
965
965
964
961
963
964
967
966
965
962
964
966
966
965
964
964
964
964
962
963
961
961
961
962
964
963
962
962
965
965
965
965
964
966
967
970
969
970
968
969
970
969
967
969
969
970
970
971
970
971
972
973
978
980
979
976
975
976
975
977
978
979
980
979
983
984
984
986
988
996
999
1002
1008
1015
1030
1049
1073
1094
1117
1137
1156
1172
1188
1201
1199
1174
1140
1098
1057
1023
999
983
970
966
967
975
980
980
978
975
975
972
972
966
967
963
964
964
961
957
957
954
952
953
950
950
952
957
964
967
968
969
967
965
966
967
969
967
967
968
967
969
968
970
971
973
974
976
977
975
974
975
978
983
983
984
982
983
983
984
983
982
983
981
983
988
989
988
988
989
990
991
989
988
986
988
992
993
993
994
994
996
997
998
999
996
994
993
994
993
993
991
990
991
996
996
996
994
990
992
989
990
989
986
983
980
982
984
984
982
981
980
982
983
984
981
982
982
984
984
983
981
980
979
979
981
979
978
975
977
979
979
978
978
978
980
981
983
982
980
978
975
977
976
973
971
968
967
968
969
968
969
969
971
973
974
973
972
971
972
975
974
976
975
973
971
976
976
976
977
976
976
975
976
975
973
972
972
973
975
975
976
973
971
972
971
973
972
972
970
972
972
971
969
965
964
965
967
966
965
959
958
959
960
960
962
958
957
963
967
970
969
966
967
969
971
972
971
969
970
972
974
975
975
973
976
977
978
977
976
975
975
977
979
977
976
975
974
977
979
978
977
977
977
976
976
977
978
977
980
981
986
991
994
998
1007
1028
1053
1075
1097
1119
1143
1165
1186
1197
1196
1175
1139
1096
1055
1019
991
970
962
964
972
983
986
985
981
980
981
979
977
975
973
976
978
976
973
972
969
971
973
974
971
969
968
970
971
969
967
964
965
968
969
969
969
966
968
969
971
970
969
967
968
970
972
972
972
970
971
974
977
976
977
976
980
982
985
986
987
987
989
991
995
994
995
994
996
998
997
998
997
996
998
1000
1002
1000
998
997
996
996
998
996
993
991
989
988
988
986
984
981
979
979
979
978
975
972
972
974
974
971
969
967
968
971
970
970
966
965
964
965
964
965
963
964
964
965
969
968
968
968
968
969
971
969
970
967
967
968
970
972
973
974
974
977
977
976
976
972
972
976
975
975
973
973
971
973
974
973
974
972
972
971
972
971
969
968
968
970
971
970
968
968
967
968
969
968
967
963
962
964
966
966
966
966
962
966
966
965
963
962
963
962
964
963
962
960
958
960
962
963
960
956
954
956
959
957
959
961
965
974
979
980
979
976
976
977
980
978
978
976
976
978
979
980
975
976
973
975
977
975
973
973
971
973
972
971
969
968
970
970
973
974
976
975
977
976
981
986
993
995
1002
1015
1036
1057
1076
1094
1118
1142
1158
1169
1175
1174
1160
1136
1109
1071
1032
1005
994
991
990
990
988
989
985
984
983
978
974
970
970
971
971
967
964
963
963
965
968
966
966
965
965
965
967
969
970
967
966
967
969
967
968
968
968
969
970
969
967
965
966
968
969
969
968
967
968
969
971
973
971
973
977
982
985
986
988
987
987
991
993
992
990
989
991
993
995
995
996
996
996
997
999
998
996
991
989
989
988
984
981
978
976
977
977
974
970
970
971
970
969
966
965
966
965
967
969
967
967
965
966
968
968
967
966
966
965
965
966
967
969
969
972
974
977
977
976
976
973
975
975
974
974
975
975
976
977
974
975
973
973
973
974
972
971
970
970
970
970
970
970
970
966
966
970
970
966
967
967
967
968
967
967
965
966
966
967
965
965
963
964
963
965
965
964
961
961
960
962
964
962
963
966
969
971
970
969
968
967
968
969
967
967
966
966
966
968
968
966
963
962
965
968
967
965
964
964
963
966
965
970
971
977
984
988
991
997
1010
1028
1050
1071
1094
1121
1141
1160
1176
1187
1176
1145
1104
1056
1016
991
977
967
965
967
974
977
976
971
965
964
965
970
971
971
969
968
970
970
969
968
964
964
962
964
962
960
956
956
959
961
960
960
961
962
965
967
966
965
964
965
966
968
966
966
964
968
969
971
971
971
971
972
974
976
973
973
975
976
978
980
981
981
983
984
985
988
991
994
995
998
1002
1003
1004
1002
999
996
999
998
998
995
992
989
989
990
986
980
976
975
975
974
973
970
965
965
967
970
969
968
966
964
968
968
968
966
963
963
964
966
965
964
963
962
962
964
963
962
958
957
959
961
961
962
961
961
960
962
960
958
955
955
955
961
961
963
964
967
972
975
974
973
970
970
970
971
970
968
969
970
972
973
971
970
967
967
970
973
973
970
969
969
971
973
972
971
969
969
968
971
970
970
966
966
967
968
967
964
963
961
963
966
966
963
961
963
967
969
968
964
962
963
964
967
965
964
963
962
962
966
968
965
967
969
973
979
978
977
975
975
976
980
980
981
981
983
990
997
1003
1011
1030
1050
1075
1101
1128
1152
1172
1189
1207
1222
1217
1194
1155
1109
1062
1023
995
977
963
957
959
968
972
975
974
971
972
974
971
969
967
963
965
965
962
963
962
959
959
961
960
960
960
960
960
962
961
962
964
963
966
971
968
967
965
965
969
970
970
971
970
971
972
972
973
971
972
973
974
973
977
976
975
976
977
981
981
981
980
982
985
989
989
989
989
988
991
993
993
994
993
993
993
994
995
995
993
993
993
993
992
990
987
985
984
981
979
978
973
971
970
972
970
969
969
969
973
975
975
975
973
976
977
979
978
975
973
974
974
975
974
974
973
973
973
976
979
977
976
977
980
980
978
976
974
976
978
979
979
976
975
973
976
975
976
974
973
973
976
978
977
975
972
972
974
975
974
971
970
969
969
966
969
964
960
959
960
963
961
957
955
955
960
966
967
967
969
970
974
976
982
984
983
984
986
988
985
982
982
980
980
984
983
978
974
974
976
977
977
975
970
969
970
971
972
970
969
969
971
975
973
971
968
969
970
972
972
971
967
967
969
972
972
971
970
972
978
985
989
993
1000
1016
1037
1056
1075
1093
1114
1133
1146
1159
1170
1173
1160
1141
1116
1088
1055
1027
1013
1003
997
998
997
996
993
989
987
987
984
981
977
975
975
976
974
974
968
967
969
969
969
969
967
966
968
969
967
967
965
966
968
967
966
965
965
962
964
968
967
967
966
966
966
969
967
971
969
970
973
976
975
978
977
977
981
983
983
980
975
978
982
983
983
981
982
985
988
991
993
993
996
999
1003
1003
1004
1001
997
999
1002
1004
1002
1001
999
998
999
1001
998
995
992
991
990
991
990
985
981
981
981
980
981
978
976
973
975
975
976
974
971
972
977
979
979
977
972
971
974
976
972
972
970
970
971
974
974
973
970
967
969
971
968
968
967
967
968
970
970
972
973
974
977
980
981
979
976
977
978
980
980
979
976
977
977
980
977
975
975
973
975
978
975
975
973
976
977
978
977
974
973
973
974
975
976
972
971
968
970
970
969
968
968
968
968
970
968
967
966
967
967
968
968
967
965
965
968
970
970
968
967
970
970
972
971
971
971
970
971
973
973
971
969
971
970
972
972
970
969
971
974
979
977
975
970
972
972
975
974
973
968
969
969
971
968
967
966
967
969
970
971
966
965
964
966
970
969
966
965
966
970
973
974
978
980
984
992
998
1012
1029
1045
1063
1083
1108
1134
1151
1159
1173
1183
1181
1163
1136
1102
1062
1032
1013
1004
997
988
985
987
991
991
987
982
980
980
979
977
977
973
971
972
972
972
970
966
967
967
968
965
965
961
962
963
964
965
963
961
962
962
964
964
966
962
962
964
966
968
967
965
969
971
974
975
974
975
975
976
979
981
984
984
990
990
992
992
993
992
994
996
997
998
995
996
997
999
1000
999
998
996
1000
1000
1001
1002
999
998
999
1000
1001
1002
998
994
995
995
996
994
991
986
985
984
985
984
981
980
979
981
980
980
979
978
977
978
979
980
978
975
976
978
979
979
976
974
974
974
975
975
972
970
972
973
975
974
973
970
972
974
975
975
973
971
973
972
974
972
974
971
972
971
972
972
971
967
969
971
972
973
973
973
973
977
980
979
978
975
978
979
980
980
978
975
976
978
978
978
978
975
975
976
977
977
975
972
969
970
974
974
972
970
969
971
971
972
968
964
966
970
972
971
968
964
967
967
971
970
970
968
968
968
969
969
968
965
966
969
972
971
971
971
972
974
976
974
973
973
974
976
977
978
977
975
975
976
977
975
973
970
970
969
971
970
967
966
968
970
971
970
970
969
971
976
976
973
972
970
971
973
973
973
971
969
968
968
969
969
968
965
965
967
968
968
967
964
967
968
972
972
971
968
972
974
976
975
976
972
973
975
977
976
975
976
977
979
978
977
973
973
975
978
979
977
977
972
975
977
980
979
978
976
975
979
986
989
996
996
1002
1011
1029
1051
1071
1089
1113
1140
1161
1180
1195
1209
1209
1193
1162
1118
1073
1032
1003
984
975
965
961
966
973
978
977
978
973
969
970
970
968
968
970
968
968
971
974
974
975
972
973
975
976
976
975
972
973
974
976
974
972
971
972
972
975
974
973
970
971
973
974
976
973
971
973
974
975
973
975
974
974
976
979
981
980
979
983
985
988
987
986
986
987
989
992
991
990
990
993
994
996
995
994
994
995
998
999
999
998
995
994
999
1003
1004
1003
1000
1002
1002
1002
999
996
991
989
988
990
986
984
980
980
982
982
978
977
975
975
976
974
973
971
968
970
971
972
975
971
972
973
974
974
974
973
970
968
971
973
970
971
967
970
971
973
971
972
967
967
967
969
969
969
964
969
973
977
977
978
977
980
981
982
983
980
980
982
983
984
983
981
978
980
982
982
978
977
974
977
977
979
978
975
973
974
973
974
978
978
977
979
980
981
978
975
973
974
973
974
973
969
967
968
969
969
967
964
962
962
963
963
962
958
958
959
961
966
971
972
971
973
973
976
976
975
969
973
975
975
974
972
969
969
972
972
973
969
965
967
968
969
967
966
965
968
968
973
972
972
969
968
970
971
968
967
966
967
969
970
971
968
966
967
969
970
969
968
966
967
968
968
967
966
967
967
968
970
969
967
967
968
968
970
970
967
969
970
972
974
972
971
969
969
974
973
972
971
973
976
982
987
993
996
999
1009
1026
1047
1066
1080
1099
1121
1144
1162
1176
1186
1190
1177
1146
1110
1063
1024
999
989
979
980
981
983
979
981
979
978
976
974
972
972
972
974
972
973
972
974
972
973
973
972
967
969
968
970
970
970
968
969
969
972
971
969
967
967
967
969
968
969
967
968
970
973
972
971
969
970
973
973
976
975
972
974
975
977
979
978
977
976
979
981
982
980
980
981
986
987
988
989
987
989
992
997
999
1003
1004
1005
1007
1008
1008
1005
1000
1001
999
996
994
990
985
985
981
982
978
971
969
970
972
972
971
966
965
965
968
966
965
965
962
965
964
966
964
962
961
962
963
964
964
962
962
966
966
967
967
967
967
969
971
974
975
974
975
974
974
973
973
969
967
966
966
965
963
962
961
963
966
972
975
977
976
976
979
981
981
979
976
975
974
976
974
972
970
971
971
971
971
968
965
967
966
969
967
967
967
971
973
974
970
968
970
974
973
974
973
971
969
971
971
972
969
966
965
965
966
965
964
960
960
961
960
961
958
957
955
955
956
955
956
955
953
957
962
968
971
973
973
975
975
977
978
977
982
987
995
998
1006
1019
1036
1056
1077
1097
1124
1146
1155
1170
1183
1187
1170
1142
1104
1063
1028
1008
998
989
981
979
979
981
980
974
969
965
965
965
964
962
959
959
962
964
963
959
958
958
960
962
961
959
959
962
967
969
970
966
965
966
972
973
974
972
970
973
973
972
972
969
965
969
971
972
973
970
971
973
973
974
976
974
972
976
978
978
982
979
978
981
983
984
986
985
984
986
989
991
992
991
992
994
997
997
996
992
989
990
989
988
985
984
980
982
981
981
981
980
977
974
974
973
970
966
965
965
966
964
964
963
958
958
960
960
961
959
959
960
963
964
963
961
960
962
962
965
964
962
961
962
963
965
964
964
962
963
964
966
964
964
963
965
967
966
967
967
963
964
966
967
967
966
965
965
966
968
968
968
965
965
966
967
967
965
964
966
966
969
967
966
963
964
967
966
966
964
963
964
963
965
966
964
960
962
963
964
967
963
962
963
966
967
966
965
962
964
964
967
968
963
963
963
965
966
965
964
963
964
964
965
966
966
967
970
969
970
972
969
967
966
969
973
976
979
981
985
995
1011
1029
1046
1064
1089
1117
1142
1164
1181
1194
1198
1183
1149
1105
1060
1017
991
972
964
958
956
960
967
970
969
967
966
965
963
963
963
962
959
957
958
960
961
960
960
956
957
956
958
957
954
950
952
954
954
954
956
954
954
955
958
958
960
955
956
960
964
962
961
959
964
965
970
969
967
968
973
973
978
980
977
977
979
981
986
987
988
985
988
990
994
994
994
996
996
1001
1001
999
995
994
995
995
994
993
990
987
986
987
984
981
978
973
973
971
972
972
969
965
964
963
963
961
961
958
958
959
961
960
960
957
957
959
961
961
961
958
960
960
961
960
959
958
959
960
963
963
962
959
961
964
966
964
963
960
961
963
964
963
960
959
960
961
961
958
959
958
958
959
964
963
962
962
962
963
966
964
963
959
960
963
966
966
965
964
966
967
968
969
966
966
966
966
966
966
962
961
958
960
961
962
960
958
959
961
963
961
961
959
957
959
961
959
957
954
954
956
956
954
951
951
951
953
956
955
953
950
951
954
955
954
952
951
951
954
955
956
952
952
955
957
957
956
954
955
955
959
961
964
963
965
970
971
974
973
969
970
978
984
990
995
997
998
1007
1025
1044
1065
1083
1106
1133
1157
1176
1193
1201
1189
1158
1118
1076
1030
997
975
960
954
958
964
968
965
966
964
964
962
958
957
956
955
954
953
953
952
952
954
956
957
956
954
956
959
961
962
962
959
960
961
962
964
963
964
967
969
972
972
970
968
969
973
975
975
975
973
974
975
978
978
977
977
977
977
980
978
979
977
980
980
981
982
984
980
984
985
988
989
988
988
989
995
996
995
993
990
989
988
984
984
982
978
977
977
976
974
969
966
967
971
972
969
970
969
969
973
973
971
970
969
970
972
973
971
970
970
971
970
971
971
969
968
970
971
973
972
975
976
981
988
992
998
1005
1019
1045
1070
1092
1108
1130
1153
1175
1188
1188
1176
1153
1126
1095
1057
1023
1000
994
989
981
974
973
970
969
967
967
967
967
965
961
961
960
961
962
961
961
959
962
963
964
964
963
961
963
963
964
963
961
961
962
964
965
965
962
962
962
964
966
966
963
962
965
968
968
967
968
963
965
965
968
969
969
968
971
974
974
976
973
973
976
977
979
979
978
978
979
980
982
980
980
980
983
987
990
992
993
989
991
993
993
993
991
988
986
990
990
988
982
979
979
978
977
976
974
973
973
973
973
973
970
969
968
968
969
971
968
966
966
966
968
967
966
964
964
967
966
968
966
964
964
968
966
967
966
963
966
967
968
967
966
962
961
962
963
959
957
954
955
957
962
968
969
967
970
971
972
972
968
967
967
969
968
971
967
965
968
967
968
964
962
959
960
960
961
959
956
955
955
956
958
958
955
955
956
958
961
960
958
954
954
955
955
955
953
950
950
951
954
952
950
946
945
945
947
949
944
944
946
953
959
960
960
962
965
969
974
978
981
984
990
999
1014
1035
1055
1074
1098
1125
1150
1165
1176
1187
1188
1173
1147
1113
1072
1036
1013
1000
991
983
978
977
979
979
979
973
969
966
966
963
963
962
958
955
956
955
954
951
949
947
950
952
954
952
949
950
951
951
952
950
947
946
947
947
950
949
953
954
961
966
968
968
968
966
970
972
975
975
972
973
975
976
977
976
975
972
973
975
974
975
973
972
974
975
975
975
973
973
978
977
978
979
980
981
981
981
982
980
979
978
977
978
978
975
976
974
974
974
974
970
968
967
966
969
969
969
966
965
966
966
967
969
969
968
973
976
979
978
978
977
978
980
979
979
977
976
977
979
978
979
975
972
973
974
975
973
971
967
970
972
971
970
968
968
967
968
968
966
964
963
962
962
965
964
962
959
962
962
966
965
963
962
963
964
966
965
963
965
966
968
969
968
966
964
965
968
972
972
973
973
975
977
978
978
975
973
972
972
972
971
970
966
967
966
965
965
963
962
961
961
963
964
962
961
963
962
964
961
961
962
961
961
963
962
961
960
960
959
962
962
961
961
963
963
966
966
965
965
964
966
966
966
965
963
965
966
968
966
966
965
968
973
977
979
981
985
997
1015
1038
1063
1086
1108
1134
1160
1176
1192
1203
1202
1187
1157
1119
1074
1030
997
978
967
961
959
961
967
972
972
969
968
966
961
963
964
965
964
964
963
962
963
964
962
961
961
961
961
962
960
959
959
958
960
959
959
959
958
960
960
960
960
960
961
963
963
964
964
964
963
966
968
971
973
974
974
974
978
980
979
976
974
976
976
978
979
974
977
981
982
985
984
984
983
986
988
990
992
990
991
992
991
994
992
990
990
989
990
989
987
980
979
979
978
979
977
974
974
973
974
973
972
970
965
967
967
968
967
966
968
969
970
971
969
969
968
968
969
973
970
967
965
966
966
968
968
968
966
970
971
973
972
971
970
971
972
972
969
969
968
971
971
972
971
969
968
970
971
973
971
967
965
966
967
968
967
966
966
967
972
973
974
971
969
969
969
971
971
968
967
967
969
971
970
968
966
968
971
972
970
968
967
971
973
975
975
973
973
977
980
984
981
985
988
999
1016
1034
1051
1068
1089
1116
1139
1159
1180
1193
1195
1182
1156
1120
1077
1034
1001
978
965
956
955
962
968
975
977
973
971
967
965
964
963
965
962
961
961
962
962
962
962
961
960
960
960
961
959
957
955
960
960
962
962
960
960
961
962
965
965
964
964
966
967
968
968
967
966
967
969
969
970
969
967
971
973
975
976
974
973
975
977
977
978
977
979
981
984
985
983
981
977
979
981
982
982
981
980
981
982
984
982
978
976
978
978
979
976
975
973
975
975
975
974
971
967
969
969
971
969
965
962
963
965
964
965
967
967
967
970
974
973
972
969
968
972
970
970
968
968
969
970
970
972
970
969
971
973
976
972
970
969
969
970
969
970
970
970
972
973
973
972
971
968
968
968
971
971
969
965
966
968
967
968
965
964
964
967
967
969
966
965
965
965
966
966
964
962
964
965
967
967
967
966
967
968
969
970
969
969
975
979
978
975
973
968
972
972
972
971
971
971
971
973
974
975
972
972
974
977
977
976
974
973
972
975
975
974
973
975
981
986
991
998
1015
1035
1052
1072
1094
1117
1138
1150
1165
1179
1184
1174
1152
1127
1092
1055
1026
1008
994
988
982
980
982
982
979
977
977
975
975
975
973
972
974
974
976
975
973
971
975
977
978
976
972
971
974
975
973
973
971
972
973
975
975
972
970
968
970
971
972
970
969
966
968
968
970
967
966
963
964
966
964
962
963
962
966
967
968
967
965
967
967
971
975
975
976
976
977
979
982
983
981
980
987
990
995
996
997
995
997
1002
1003
1002
998
998
997
998
999
997
995
992
991
991
992
988
985
984
982
982
981
978
975
972
972
971
970
969
967
966
966
967
967
967
965
963
964
965
966
965
966
967
968
971
971
971
970
969
973
974
976
975
975
977
977
981
984
983
981
981
981
984
985
982
981
982
984
985
987
986
985
985
986
987
989
988
985
984
986
986
989
991
991
998
1006
1018
1037
1052
1067
1080
1098
1117
1136
1151
1160
1166
1166
1156
1134
1101
1064
1029
1005
996
995
992
987
982
982
984
984
981
978
974
972
971
972
970
968
969
969
974
974
974
969
967
970
971
973
970
969
965
966
968
965
965
962
960
962
965
965
964
963
960
964
966
966
966
964
962
967
966
967
967
964
965
969
972
975
975
976
976
979
981
983
983
981
981
983
986
990
991
991
992
993
997
998
999
996
997
999
1002
1003
1002
1001
999
998
998
996
995
991
989
988
987
987
984
980
978
978
979
978
975
973
971
972
972
972
971
969
970
971
972
974
971
971
969
972
973
973
973
973
969
973
974
974
972
971
971
973
977
977
979
975
974
977
979
979
977
975
973
975
974
975
975
974
973
975
975
975
973
973
970
973
976
973
971
971
967
971
970
970
966
965
964
966
967
968
967
965
963
964
966
966
964
963
962
966
967
967
964
964
964
965
968
968
966
967
964
965
968
968
966
966
968
970
973
974
974
978
977
979
981
980
976
975
975
975
976
976
975
974
974
977
976
976
976
974
976
979
980
978
975
974
974
972
976
977
972
971
968
967
971
971
969
966
965
966
968
968
967
968
968
971
972
974
974
972
970
972
972
973
970
968
967
971
973
975
974
977
976
978
981
983
982
983
983
988
989
990
992
994
999
1005
1010
1022
1037
1057
1078
1105
1132
1157
1178
1196
1212
1218
1206
1173
1127
1079
1036
1004
984
970
959
954
958
967
974
973
970
968
965
966
965
967
965
961
959
961
961
963
962
960
957
958
962
962
963
962
962
965
967
967
967
969
970
973
977
977
976
974
974
976
978
977
978
977
977
980
980
981
981
977
977
981
983
984
982
980
978
981
983
983
982
979
978
981
985
984
987
989
988
991
993
994
994
994
994
998
1001
1000
1001
999
998
1002
1003
1002
1001
994
995
996
1000
1000
998
998
994
993
996
994
991
989
987
988
988
986
984
982
982
982
983
984
984
983
981
981
982
983
985
982
983
984
985
987
990
987
986
986
985
985
984
983
981
983
983
983
981
979
979
981
982
983
981
980
981
983
986
988
986
981
979
981
980
980
983
981
978
980
981
981
982
981
978
979
981
983
980
978
974
979
979
978
976
974
974
978
980
979
975
974
972
972
973
972
971
969
968
969
969
972
971
970
969
970
970
971
968
967
966
970
968
968
966
965
962
963
965
967
969
969
970
971
973
976
976
977
975
975
979
980
980
980
982
985
988
991
996
998
997
1002
1012
1027
1049
1067
1088
1114
1144
1170
1191
1210
1225
1226
1209
1168
1122
1075
1035
1005
990
978
973
975
982
987
987
983
979
979
974
973
972
970
967
964
962
962
966
965
961
958
958
961
962
962
960
961
963
966
972
973
972
972
972
974
975
974
972
968
970
971
974
974
978
977
978
980
983
982
983
981
981
983
982
984
984
982
986
987
988
991
989
988
987
988
990
990
989
987
987
989
989
988
989
989
988
988
989
989
989
988
986
989
989
988
984
984
983
984
986
983
982
981
979
979
981
980
979
978
978
979
979
979
978
977
976
979
978
980
980
977
976
979
982
982
981
979
977
979
982
983
981
978
977
978
979
980
979
977
977
977
979
981
980
978
979
983
985
986
983
980
979
981
982
983
981
981
979
977
979
977
974
973
973
974
976
977
974
971
971
973
974
974
974
971
973
974
978
979
977
974
974
973
977
977
976
978
980
983
988
991
996
1009
1028
1051
1072
1094
1120
1144
1162
1179
1189
1183
1161
1128
1083
1043
1017
1002
994
986
985
987
990
990
987
979
977
977
976
974
972
971
968
971
973
974
972
970
969
970
972
969
970
967
967
968
972
972
971
969
969
972
974
974
972
971
971
974
974
976
975
973
971
975
976
978
978
976
976
977
979
981
980
981
980
982
983
985
983
982
983
987
991
991
994
996
999
1001
1003
1002
1000
999
997
997
998
996
995
994
990
990
988
987
984
980
978
979
977
976
975
974
970
972
970
973
971
971
969
968
969
971
970
970
966
970
973
976
975
974
973
976
978
979
981
979
979
980
983
980
979
979
980
980
983
983
981
980
979
981
979
980
978
976
975
977
978
977
976
975
975
976
977
973
971
970
970
971
972
971
971
969
968
972
973
975
976
974
973
974
974
975
975
974
976
973
974
974
975
974
972
974
977
978
977
974
973
974
975
974
976
974
975
976
977
978
978
975
974
978
976
977
977
978
976
978
977
978
978
975
975
975
978
977
977
975
974
976
978
980
982
986
990
994
1000
1010
1027
1046
1066
1083
1107
1130
1150
1164
1178
1190
1188
1168
1135
1099
1060
1029
1012
1000
992
987
989
991
991
988
983
979
977
976
976
974
971
970
968
970
970
970
970
970
970
971
972
972
970
969
968
969
972
972
971
972
971
975
977
978
977
974
975
979
982
983
982
981
980
983
983
982
982
980
981
982
983
980
980
981
982
985
988
987
987
988
988
990
994
992
992
991
993
993
998
998
998
996
998
1000
1002
1004
1003
1001
1000
1001
1003
1001
999
995
994
994
992
993
993
990
989
991
991
990
988
986
985
982
983
984
982
979
979
978
981
980
978
977
975
978
978
978
977
977
977
979
981
981
980
981
982
984
986
986
982
983
983
986
988
988
986
985
985
988
988
986
985
982
982
986
989
988
984
980
984
983
986
986
983
982
982
984
987
987
984
982
983
983
984
984
981
980
979
979
978
980
978
976
974
974
974
975
974
972
972
975
975
976
976
973
973
975
978
979
977
975
975
975
977
978
979
978
979
980
981
984
983
983
980
981
982
984
982
980
979
979
982
980
980
978
977
979
982
982
982
979
979
980
980
978
977
975
976
980
980
982
982
984
987
992
997
1001
1007
1016
1029
1054
1074
1095
1118
1143
1167
1191
1211
1228
1232
1213
1175
1130
1083
1039
1006
988
974
972
977
983
990
991
989
988
987
986
980
979
978
977
977
976
976
974
975
975
976
976
974
973
973
975
975
973
974
972
970
970
971
970
969
967
969
970
974
973
975
975
977
978
982
982
983
982
983
983
985
986
986
985
983
986
987
989
987
986
987
988
991
991
991
990
988
990
991
992
991
990
990
992
993
995
996
993
995
997
999
1000
1000
997
997
999
999
999
998
992
991
993
990
992
986
984
984
985
985
985
982
981
979
980
980
977
974
975
973
975
977
977
976
976
975
978
980
982
981
981
981
984
984
982
982
980
979
984
983
981
981
979
980
982
984
985
984
982
982
985
985
985
984
981
981
981
984
984
983
979
979
980
979
980
978
977
978
978
981
981
981
979
978
977
980
980
977
974
975
977
980
979
976
976
976
977
980
978
978
976
975
977
979
979
977
976
974
976
977
977
977
975
975
974
976
978
976
976
973
975
977
978
977
976
972
974
975
978
975
974
974
976
976
974
974
974
973
974
975
976
974
973
974
976
976
975
974
975
974
975
977
975
975
975
973
975
977
978
976
977
979
980
981
980
979
980
979
982
980
980
980
978
978
979
979
980
978
977
975
976
978
979
977
978
978
980
985
989
995
996
1001
1014
1034
1055
1076
1098
1120
1145
1166
1185
1198
1209
1209
1193
1171
1140
1104
1065
1032
1011
1003
993
991
992
997
1001
999
994
990
987
985
985
983
981
978
974
974
972
975
970
970
968
966
967
969
968
967
963
962
965
969
971
972
970
971
972
974
974
973
970
971
975
975
977
976
977
977
981
983
981
983
982
984
984
987
984
983
984
984
988
990
990
989
987
988
990
991
989
987
983
985
988
992
991
990
992
995
1000
1005
1004
1003
1003
1002
1004
1006
1006
1003
1001
1000
1002
1003
1002
1000
999
998
999
1000
1000
997
994
992
993
998
995
994
990
991
990
992
991
988
982
983
985
985
985
982
980
980
981
980
982
980
978
979
979
980
980
981
979
976
977
979
978
978
975
975
975
974
976
976
975
977
979
982
982
982
981
980
981
985
986
986
984
986
989
990
990
990
990
990
992
990
990
988
988
988
990
990
987
988
988
987
987
987
986
985
983
983
988
990
992
996
998
1001
1007
1019
1035
1050
1063
1076
1091
1115
1134
1145
1154
1165
1173
1172
1154
1130
1100
1063
1034
1017
1007
997
991
986
986
989
988
986
982
979
981
980
982
982
982
980
980
983
981
980
982
980
981
981
978
976
976
974
977
977
976
976
974
974
974
977
976
977
976
977
978
978
978
981
979
977
980
981
980
981
980
981
983
984
983
983
982
983
986
987
985
985
984
987
989
992
993
993
993
995
998
1000
1000
998
998
998
1002
1001
1001
1000
999
998
1001
1003
1002
1002
1000
1001
1000
1000
997
994
992
992
992
994
991
988
986
985
984
986
982
979
978
979
980
980
978
974
973
974
975
976
974
971
971
973
976
977
976
974
974
974
979
982
982
984
983
981
983
985
981
981
982
981
982
982
981
982
983
983
988
989
985
985
983
983
985
985
984
983
982
981
983
983
981
980
979
978
979
981
976
977
975
975
975
975
975
974
972
972
973
977
976
975
971
973
975
978
975
974
972
972
972
975
975
975
973
971
970
972
975
975
976
976
978
980
982
985
985
984
989
988
987
987
986
985
985
986
987
987
984
985
987
989
988
988
987
986
985
988
988
986
986
984
988
988
990
994
994
999
1001
1009
1022
1040
1059
1079
1102
1127
1151
1169
1184
1198
1205
1197
1173
1140
1102
1060
1030
1010
997
987
984
988
996
1003
1003
999
995
994
993
993
992
992
990
989
990
992
990
988
985
983
984
984
980
981
980
979
981
981
981
980
978
980
980
983
983
981
979
979
980
981
982
980
980
981
986
986
987
987
987
987
988
989
987
985
984
984
990
992
990
990
991
993
995
998
996
996
994
995
999
1002
1001
1000
999
1001
1004
1006
1005
1006
1002
1004
1008
1009
1009
1006
1006
1005
1006
1007
1007
1006
1002
1002
1004
1004
1001
999
996
996
998
999
998
996
994
991
993
994
994
992
989
987
988
989
987
983
984
985
984
989
987
986
984
984
985
989
988
985
982
983
985
985
984
982
982
983
986
989
988
987
986
987
990
993
991
991
990
991
994
997
995
994
990
991
992
991
991
989
986
987
986
989
988
987
988
986
989
989
989
987
986
986
987
988
988
987
984
982
983
983
981
980
980
980
981
985
985
985
985
985
985
986
986
984
983
986
988
991
991
989
988
987
987
988
989
988
987
987
990
993
996
999
999
1004
1011
1029
1051
1074
1092
1118
1146
1173
1194
1212
1219
1216
1192
1157
1114
1070
1029
1002
988
980
977
978
982
989
990
986
986
982
981
981
983
983
986
984
981
979
981
984
980
977
977
976
978
978
978
977
975
979
979
983
983
980
977
978
981
983
984
982
980
980
983
986
985
985
983
983
986
988
987
987
985
987
989
992
993
990
989
991
996
998
999
1000
997
997
1001
1002
1000
999
996
1000
1001
1004
1002
1002
1001
1002
1001
1001
1001
998
995
995
999
999
999
996
995
995
995
997
996
993
991
991
991
991
992
988
986
987
985
989
988
985
984
984
986
989
988
988
988
989
991
990
990
987
986
983
986
987
985
982
981
983
985
987
985
983
982
981
986
986
989
986
985
986
987
988
990
987
985
985
988
989
989
988
986
985
988
991
989
986
983
985
986
987
986
987
986
987
986
990
990
991
989
988
990
990
989
985
984
984
985
988
987
985
984
984
987
988
988
988
986
987
992
995
998
999
999
1003
1010
1021
1035
1054
1071
1092
1115
1137
1160
1174
1186
1199
1197
1181
1154
1121
1077
1042
1022
1012
1006
999
994
997
998
1000
995
990
986
986
985
983
982
981
980
979
981
979
980
978
976
975
977
980
980
980
977
977
979
982
984
983
981
984
982
987
988
986
985
984
985
985
985
983
981
982
984
988
989
987
987
988
990
990
994
994
993
996
1001
1001
1003
1001
999
1000
1003
1006
1005
1004
1005
1006
1009
1007
1004
1003
1001
1003
1003
1003
1001
998
998
998
1001
998
997
994
992
990
990
991
988
987
985
986
985
988
986
985
984
984
986
991
992
992
991
991
992
995
996
995
994
995
996
998
999
995
990
992
994
996
993
991
985
985
986
986
988
989
990
992
996
1001
1006
1011
1021
1040
1066
1088
1106
1127
1148
1173
1194
1201
1204
1188
1159
1123
1086
1050
1024
1013
1009
1008
1007
1004
1003
998
993
992
990
990
988
985
982
981
983
981
980
977
973
975
975
974
974
971
968
970
971
971
971
969
966
967
969
973
971
971
971
972
973
974
973
972
972
973
977
978
977
977
977
977
978
980
978
980
981
983
988
994
998
999
1000
1004
1007
1007
1006
1005
1006
1006
1006
1011
1011
1011
1010
1011
1012
1013
1011
1009
1007
1005
1004
1004
1002
998
993
993
992
992
989
988
986
986
984
985
984
983
983
982
984
984
983
982
982
983
983
982
981
981
981
984
987
984
982
980
977
979
981
982
983
985
985
985
988
989
990
988
988
988
989
988
986
984
983
983
984
983
983
981
979
980
979
979
978
977
975
976
976
975
975
977
973
973
972
974
976
975
974
976
978
979
977
975
974
977
978
978
979
977
974
976
976
977
977
977
976
975
973
976
976
973
972
973
977
980
982
981
982
985
986
985
987
985
984
982
985
987
987
984
983
983
984
987
988
986
983
983
986
988
988
987
987
988
990
990
991
991
988
989
991
992
993
990
988
990
990
991
991
988
987
987
989
991
994
997
998
1001
1006
1018
1034
1053
1072
1096
1122
1145
1165
1180
1195
1205
1199
1171
1131
1083
1039
1011
996
984
979
981
985
994
996
996
992
990
988
988
988
985
982
981
980
979
980
982
979
979
977
977
977
978
976
974
971
972
971
970
971
972
971
970
971
972
972
971
969
971
972
975
976
975
973
973
974
976
977
981
982
985
989
993
997
998
1000
1001
1004
1009
1008
1009
1008
1009
1011
1013
1013
1013
1009
1012
1015
1014
1015
1015
1012
1012
1013
1014
1016
1015
1011
1010
1008
1009
1008
1004
1002
1000
1000
999
999
994
992
992
993
994
992
989
985
986
988
990
991
991
988
988
991
992
993
990
988
989
990
993
992
994
992
992
994
995
995
995
994
995
995
995
995
993
992
993
995
994
992
990
987
988
989
991
992
989
988
987
989
991
991
991
987
985
986
988
988
988
983
984
986
989
991
991
987
987
987
988
988
986
983
984
987
988
988
986
983
986
992
997
999
1003
1016
1037
1058
1077
1099
1116
1136
1159
1181
1198
1200
1183
1149
1105
1064
1030
1003
985
971
970
980
988
996
993
987
984
986
985
986
983
982
981
984
985
984
983
979
979
980
981
981
978
975
975
977
980
980
977
974
973
977
977
979
976
974
973
976
978
978
975
975
975
977
975
977
975
974
974
974
977
975
972
971
972
976
978
982
985
985
988
992
997
997
998
997
999
999
1000
1001
1001
1000
999
999
1000
1000
997
996
997
997
995
993
989
985
985
986
987
986
982
981
981
981
981
982
978
975
976
975
975
975
972
969
970
968
971
971
969
967
967
969
970
973
972
972
974
973
973
972
970
971
972
972
977
979
981
984
986
991
991
991
990
986
989
992
993
991
989
985
986
987
987
985
981
980
981
982
984
983
979
979
980
981
982
982
980
978
979
980
980
978
977
975
976
976
977
977
975
972
974
976
977
977
975
972
973
973
970
969
965
962
962
966
970
971
974
974
976
978
982
980
980
979
981
980
982
981
981
980
980
980
981
979
978
977
977
980
982
983
985
988
992
999
1009
1022
1040
1055
1073
1094
1117
1142
1152
1163
1175
1180
1172
1149
1118
1084
1049
1023
1012
1003
997
989
987
986
986
982
981
977
975
973
973
973
974
973
976
977
976
976
975
975
975
977
980
980
977
975
979
979
980
979
982
981
981
982
982
979
979
977
978
980
980
978
975
971
970
971
973
972
971
971
973
973
976
975
975
974
975
977
980
980
978
976
978
978
979
978
977
974
976
979
983
982
980
980
984
986
991
993
995
995
999
1002
1004
1003
1000
998
998
1001
1001
1000
997
996
996
996
995
996
993
992
991
992
992
991
986
982
982
983
980
979
978
975
976
977
977
975
971
969
971
971
971
971
970
969
971
972
972
972
970
969
972
972
973
972
971
966
970
970
971
971
968
966
966
967
971
970
971
972
976
983
988
989
987
985
986
986
988
987
982
983
981
984
984
982
980
977
976
979
979
978
976
974
974
974
975
974
970
968
966
969
968
968
966
963
963
965
967
967
964
961
961
962
964
965
965
963
966
969
969
970
967
966
966
966
968
967
964
963
968
970
974
978
978
978
980
980
979
977
975
972
973
975
975
974
972
970
970
973
976
974
972
970
970
971
971
971
969
966
966
967
968
967
965
962
963
966
967
968
965
965
967
970
972
973
971
971
970
971
973
974
971
969
969
970
972
972
971
969
971
975
981
984
993
997
1002
1009
1017
1028
1045
1062
1080
1101
1124
1145
1160
1171
1185
1186
1170
1141
1104
1067
1029
1007
997
988
983
980
983
986
989
985
980
975
973
975
974
975
971
969
971
970
972
970
969
968
968
971
968
967
967
966
968
971
973
971
969
971
975
977
980
983
981
980
986
985
986
985
984
981
983
984
985
985
981
978
982
984
985
986
985
983
985
986
988
988
985
985
987
989
993
991
990
988
989
991
992
992
993
992
994
996
998
998
996
997
997
1000
1000
1000
996
992
993
994
996
995
994
992
991
992
995
994
991
988
992
992
992
990
985
983
981
985
986
986
984
982
985
985
986
984
981
979
980
980
981
978
977
975
976
977
977
979
976
976
975
976
978
979
978
977
979
981
983
981
980
978
978
979
983
982
981
979
980
981
982
981
981
979
981
983
984
984
983
982
983
983
984
981
977
976
976
977
977
975
975
974
973
972
973
973
970
969
970
969
972
971
969
968
969
970
968
969
967
966
966
968
969
971
969
969
972
972
972
972
971
970
971
971
974
973
971
971
975
980
981
981
979
977
978
982
981
978
977
980
980
980
980
979
979
976
977
978
978
977
974
973
976
976
978
975
974
972
973
975
977
973
970
970
971
971
975
974
972
970
974
975
977
975
973
969
969
970
971
973
974
970
972
976
977
975
971
970
970
973
975
975
973
970
971
974
976
978
977
976
978
978
980
980
977
975
975
977
977
979
977
975
974
979
980
979
979
979
980
982
981
980
979
979
977
979
979
979
979
977
979
978
980
978
976
976
978
979
982
983
981
979
981
982
981
980
979
978
978
979
978
980
981
978
982
983
983
985
984
983
986
987
993
996
997
997
1004
1017
1034
1054
1075
1094
1121
1146
1167
1185
1201
1216
1218
1208
1183
1142
1099
1057
1025
1002
988
977
969
970
976
985
992
991
989
985
983
983
982
982
977
976
977
977
978
978
976
974
975
973
975
974
976
972
975
977
977
977
978
977
978
979
982
982
981
982
979
983
985
985
983
983
983
984
984
986
985
982
983
983
984
981
981
978
981
981
982
982
981
980
984
989
990
992
993
993
994
994
997
997
996
995
997
998
999
1000
996
995
998
1000
1004
1003
1004
1003
1004
1004
1007
1005
1004
1003
1004
1006
1004
1003
999
996
999
998
998
998
994
990
992
993
993
991
990
990
990
990
990
989
989
986
990
993
993
990
987
984
983
981
982
983
982
982
984
985
986
985
986
983
984
984
985
983
984
982
985
987
988
987
986
986
986
989
990
987
986
983
987
986
987
984
983
981
982
985
986
984
981
981
980
983
984
984
982
979
982
984
985
985
981
979
978
980
981
978
976
973
976
978
981
981
976
971
971
972
972
972
972
973
974
979
983
986
985
985
987
987
989
988
988
988
987
986
988
987
986
983
984
985
986
985
984
982
983
985
984
984
986
985
985
987
988
987
987
987
987
989
991
991
993
995
997
1001
1008
1020
1036
1054
1078
1098
1121
1144
1161
1173
1185
1190
1183
1160
1134
1101
1068
1039
1020
1007
997
990
986
985
986
986
985
985
987
984
985
983
979
978
979
981
980
980
976
975
975
975
975
974
975
972
972
974
974
973
973
970
974
975
974
972
970
971
975
979
980
981
980
979
981
982
985
984
983
981
983
986
986
984
982
979
983
986
987
986
983
984
986
986
987
986
985
984
984
986
989
991
992
995
998
1002
1003
1002
1002
1002
1002
1001
1000
998
997
997
996
994
995
994
992
989
990
990
990
989
986
985
986
988
988
988
985
981
982
982
982
982
978
977
978
979
979
976
974
974
976
975
977
976
976
973
974
976
977
976
973
970
971
975
971
971
966
963
963
964
965
966
966
969
974
978
977
978
976
975
975
978
979
980
979
981
981
982
981
980
978
976
975
976
977
975
973
971
973
972
973
973
971
970
972
972
972
971
968
966
967
968
969
965
966
964
967
966
966
964
963
962
962
967
966
966
963
962
964
964
964
967
965
962
964
966
970
973
974
977
981
984
982
982
981
979
980
981
983
983
983
982
984
984
984
985
982
981
983
985
987
986
984
987
990
995
998
999
1003
1014
1036
1057
1077
1095
1116
1139
1159
1173
1185
1189
1181
1161
1132
1099
1061
1026
1003
990
985
983
982
982
983
983
981
983
983
981
977
977
975
976
975
975
970
971
972
974
977
977
978
979
980
980
982
980
979
978
979
981
981
979
979
977
978
980
979
979
978
978
979
979
981
980
977
979
979
981
983
982
983
982
983
985
985
987
984
985
989
992
992
994
991
992
991
995
995
995
995
994
999
1000
1000
1002
1001
1000
1002
1004
1002
1000
1000
1001
1001
1003
1003
1003
1002
1001
1000
997
999
997
993
992
990
989
991
990
989
986
986
987
986
986
985
985
985
987
987
988
984
982
983
985
986
983
982
980
980
979
983
980
977
974
978
978
980
981
979
978
978
980
981
979
979
978
980
981
981
979
979
980
982
986
986
985
982
979
981
983
984
983
979
978
980
984
984
984
981
981
983
984
982
980
979
978
976
976
974
973
969
969
967
968
968
966
965
963
962
964
966
966
967
969
972
974
980
981
981
980
981
980
983
982
981
980
982
985
988
989
989
987
989
989
991
991
989
988
989
993
994
993
990
989
992
990
990
987
986
984
986
989
990
988
988
987
989
996
1001
1003
1011
1031
1060
1087
1113
1141
1166
1189
1209
1221
1213
1183
1141
1094
1049
1014
989
972
962
963
973
982
984
984
983
981
981
980
980
980
978
978
979
978
979
980
978
977
978
980
980
980
977
974
975
978
978
979
975
974
977
981
982
981
979
977
978
979
979
980
978
975
978
979
981
981
979
978
979
980
982
980
980
978
981
985
984
984
987
988
989
993
996
998
1001
1003
1008
1011
1014
1013
1014
1013
1015
1016
1018
1015
1014
1011
1011
1012
1011
1008
1004
1003
1004
1004
1004
1001
997
995
994
996
995
992
988
988
991
990
987
986
982
982
982
983
983
982
977
974
974
976
976
975
976
975
978
978
979
979
977
977
982
985
987
989
989
989
990
992
989
989
989
990
990
992
993
992
989
989
991
989
988
986
987
984
985
987
987
987
984
981
983
984
984
981
980
978
977
980
979
979
975
974
974
976
976
976
970
969
971
972
975
976
975
979
984
987
990
989
985
983
986
989
992
990
988
987
988
988
987
986
985
983
985
987
985
985
984
984
984
985
984
984
980
978
979
980
980
979
977
975
977
976
978
977
975
974
974
978
980
979
978
977
981
981
982
979
976
974
975
976
979
978
976
976
976
974
977
978
978
982
988
990
994
994
990
992
997
1003
1007
1009
1013
1019
1040
1063
1084
1101
1119
1144
1164
1181
1192
1200
1193
1172
1143
1110
1069
1031
1007
996
990
988
988
989
990
989
992
991
991
988
987
986
983
984
983
980
978
979
978
979
979
976
975
973
974
974
973
971
970
971
973
975
976
981
982
985
987
989
991
989
987
986
987
990
989
989
989
987
989
990
990
992
991
992
994
995
994
995
993
994
995
1000
1001
1005
1004
1003
1005
1008
1008
1011
1008
1009
1009
1010
1011
1011
1009
1006
1003
1005
1004
1003
1000
997
995
994
994
993
989
985
984
984
987
986
985
984
985
988
987
988
986
984
984
984
984
984
981
979
978
981
981
979
978
979
981
983
984
985
982
982
983
984
985
984
983
983
986
989
989
987
986
984
983
983
985
984
982
981
982
983
983
982
977
976
977
976
977
977
977
976
978
981
982
980
977
978
979
979
980
980
979
977
979
981
981
983
979
979
980
982
983
982
979
979
980
984
985
986
982
979
983
984
984
981
980
980
981
983
981
980
979
979
981
981
981
978
976
975
973
977
976
974
969
969
968
968
968
968
970
972
976
979
977
975
972
973
974
973
976
976
974
975
978
979
980
979
976
977
980
982
982
981
981
981
985
992
996
999
1002
1015
1037
1061
1085
1108
1134
1154
1172
1186
1190
1178
1151
1116
1078
1041
1014
1000
992
987
987
990
991
989
986
982
983
984
985
985
980
977
975
975
977
973
972
974
975
976
977
975
972
973
975
976
976
974
974
975
978
979
977
974
976
975
977
977
974
973
975
974
977
983
986
986
985
987
990
992
993
993
987
987
990
992
994
998
999
999
1002
1005
1008
1007
1008
1008
1009
1014
1015
1014
1013
1010
1009
1009
1006
1006
1003
1001
1000
999
998
996
993
990
987
988
987
985
982
980
979
981
981
980
980
977
979
982
984
983
981
979
982
984
984
985
982
982
982
984
983
981
980
980
980
982
984
982
983
982
986
986
988
990
987
989
987
987
988
986
984
982
983
985
985
982
978
979
978
980
980
978
977
976
978
979
983
985
985
986
994
1001
1010
1018
1027
1040
1059
1078
1097
1113
1133
1153
1173
1189
1197
1200
1182
1153
1121
1083
1046
1012
989
980
979
979
982
986
986
987
986
984
983
979
978
975
975
974
974
975
973
970
969
969
968
968
967
964
965
966
967
967
969
967
969
970
971
972
971
971
972
973
974
973
971
972
973
975
978
977
977
979
981
982
983
982
983
986
988
991
994
997
995
994
997
998
997
997
994
996
999
1000
1001
1003
1003
1004
1005
1004
1007
1004
1007
1004
1004
1001
1002
1001
998
994
993
992
990
988
984
982
980
980
978
974
971
970
971
972
972
971
970
968
970
972
973
973
972
971
974
976
975
976
975
974
974
973
974
972
971
970
969
972
973
971
969
969
971
972
973
972
971
969
971
972
972
973
969
970
971
971
972
970
968
968
966
968
968
968
967
967
970
973
974
973
972
969
975
975
975
976
976
976
976
978
978
977
979
978
981
981
981
980
978
976
976
975
978
975
970
971
972
972
973
972
971
970
972
971
972
973
970
970
970
970
972
971
969
969
970
971
969
968
968
966
967
969
968
968
969
967
969
970
971
967
967
966
966
968
969
972
970
972
975
976
977
976
977
980
980
983
983
980
977
975
974
974
973
974
974
977
980
980
981
978
977
973
974
976
973
971
971
969
972
972
970
970
968
970
969
968
969
969
967
968
969
971
970
971
969
968
970
971
971
968
967
966
971
973
973
973
972
975
977
978
978
976
976
976
978
980
981
982
982
980
983
985
987
989
989
993
998
1000
1006
1008
1011
1018
1033
1054
1073
1091
1112
1136
1158
1174
1188
1201
1210
1206
1190
1165
1132
1095
1056
1026
1005
990
980
976
975
980
982
981
978
973
969
971
971
973
971
971
973
972
975
976
974
974
973
972
973
975
976
975
972
975
976
977
980
981
980
980
983
985
984
983
980
979
980
979
979
978
976
974
975
977
974
974
971
970
975
978
977
976
974
973
977
976
978
976
974
976
977
982
979
979
980
982
986
990
993
995
996
998
1000
1004
1003
1004
1004
1003
1008
1012
1012
1013
1010
1011
1013
1016
1014
1013
1009
1006
1006
1004
1002
997
993
989
988
987
986
986
982
980
979
981
980
977
976
975
977
979
979
980
978
977
977
981
980
980
979
975
979
979
980
981
983
982
985
990
993
993
990
990
990
991
993
992
992
988
990
991
991
989
988
986
986
985
984
982
980
977
976
977
976
974
972
969
969
970
969
967
967
964
965
966
965
966
965
965
967
969
968
968
966
964
968
971
973
976
978
982
987
994
1001
1011
1027
1045
1061
1075
1091
1114
1136
1154
1168
1179
1176
1161
1134
1097
1063
1041
1030
1020
1013
1004
1002
999
998
994
988
987
986
982
981
978
975
973
973
972
970
969
966
965
965
966
965
962
958
959
960
961
962
960
960
959
961
962
963
963
959
963
966
967
968
969
966
967
972
973
976
978
979
980
984
987
988
987
985
985
987
989
990
990
991
990
992
993
993
996
995
997
1000
1002
999
998
995
995
996
1000
999
996
993
992
993
991
990
989
986
981
983
984
982
979
978
975
977
978
976
975
974
972
976
980
979
978
975
979
980
983
984
983
981
980
981
981
985
980
980
979
981
982
980
979
977
976
978
978
977
976
974
972
972
974
971
968
967
968
969
972
973
975
975
975
979
978
979
980
979
980
983
984
985
985
984
982
984
982
981
979
976
975
979
979
980
979
978
978
978
979
978
980
977
976
975
977
974
973
972
970
972
973
973
970
967
966
965
966
965
962
959
957
960
961
958
957
955
955
955
958
957
955
954
956
961
965
969
969
969
971
973
978
979
980
980
980
984
986
988
989
989
990
993
996
998
998
1000
1003
1005
1012
1019
1034
1051
1068
1088
1112
1137
1156
1170
1186
1198
1198
1177
1145
1109
1072
1035
1009
995
983
972
967
971
976
979
976
971
968
969
968
971
969
968
969
971
973
974
972
971
972
972
975
976
977
978
978
979
981
983
983
981
981
982
983
984
982
982
984
984
986
986
985
983
980
979
979
981
978
978
977
979
982
981
981
979
978
981
984
985
983
982
980
986
986
986
984
984
987
987
992
993
992
991
990
992
994
997
1000
999
1001
1004
1009
1011
1010
1008
1008
1009
1009
1008
1008
1005
1003
1001
1000
998
996
994
991
990
992
991
990
989
987
987
990
990
987
985
983
984
984
984
982
980
980
981
983
984
983
982
979
983
983
986
984
982
983
984
984
984
985
984
982
983
985
984
983
982
978
978
981
982
981
980
982
985
988
989
988
986
986
989
991
990
989
989
986
988
989
988
986
984
983
984
986
987
986
985
984
983
985
985
985
984
983
988
990
995
998
1001
1004
1014
1028
1047
1069
1087
1108
1132
1159
1176
1191
1198
1191
1171
1140
1102
1059
1025
1003
988
979
974
976
982
987
988
984
982
978
974
969
968
969
970
970
970
971
973
973
974
975
972
969
972
975
975
974
974
972
972
974
974
973
971
971
973
976
977
976
973
977
979
981
982
980
980
980
983
985
984
985
984
984
987
989
988
989
989
987
991
995
998
996
996
994
994
997
997
997
995
994
997
999
1000
999
998
996
997
998
1001
999
997
997
1001
1002
1004
1002
1000
997
996
998
997
995
994
992
992
994
992
993
985
983
986
987
987
984
979
980
982
984
984
983
981
979
980
983
985
987
987
986
989
990
987
985
983
981
984
984
986
983
980
981
982
983
983
983
980
980
980
982
980
978
974
972
972
976
978
979
981
983
987
991
991
987
985
988
988
989
990
986
986
985
987
988
987
985
982
982
986
986
987
987
983
982
984
987
987
988
984
985
984
985
985
982
981
979
981
982
982
981
975
976
978
982
980
976
977
975
977
979
978
979
976
975
977
978
978
975
976
975
978
980
981
985
987
993
999
1011
1027
1048
1069
1089
1110
1135
1160
1176
1186
1199
1207
1201
1179
1150
1119
1081
1049
1030
1019
1006
998
998
999
1001
1001
997
992
989
985
984
982
981
976
975
978
980
978
976
977
973
974
973
972
970
969
967
967
968
969
970
967
967
965
967
967
965
964
965
967
969
969
969
968
969
974
978
983
989
991
994
997
999
999
998
996
995
995
998
997
997
994
993
995
998
996
995
996
995
995
999
1000
999
996
997
1001
1000
1000
1002
1001
1000
1001
1001
1000
999
998
994
991
994
991
990
986
984
983
985
982
980
979
981
981
984
983
981
979
977
980
979
980
983
986
989
997
1001
1001
1000
997
994
995
996
995
994
992
991
992
993
994
990
991
989
991
991
989
991
987
984
985
987
987
984
984
981
982
986
985
983
980
978
978
981
979
978
975
976
977
978
976
974
974
974
977
978
976
975
975
973
974
977
977
976
974
974
977
981
986
988
990
990
989
990
990
990
986
986
988
986
986
987
984
984
984
984
983
981
980
978
981
982
983
982
980
980
980
981
982
981
980
979
981
980
981
980
980
982
988
993
997
998
1001
1005
1020
1039
1056
1073
1091
1113
1140
1160
1170
1178
1187
1181
1165
1144
1111
1072
1039
1016
1006
1002
999
996
995
997
1001
999
994
989
986
983
983
985
982
982
977
976
976
977
974
973
971
970
972
972
973
968
968
971
972
975
974
975
978
979
981
984
982
981
980
979
981
982
983
981
981
979
980
984
982
979
982
979
981
981
982
982
979
979
981
982
981
984
983
986
989
993
999
999
997
995
1000
1005
1004
1005
1003
1004
1004
1005
1007
1006
1005
1005
1006
1008
1006
1004
1000
996
998
999
999
996
992
989
989
992
989
990
986
984
986
987
983
983
979
978
980
981
980
978
977
975
977
976
973
971
971
969
970
971
971
969
968
968
970
972
971
970
971
973
977
984
988
990
991
991
995
994
995
995
993
993
994
995
994
992
991
989
990
990
988
986
984
985
985
986
984
984
982
979
978
981
977
980
978
977
977
978
976
976
974
973
973
974
974
972
971
969
971
973
972
971
970
967
970
972
972
972
973
973
977
984
988
991
992
993
994
993
993
991
990
987
989
991
991
989
987
985
987
988
985
985
981
981
983
984
983
979
977
978
979
979
980
978
975
974
977
978
977
975
974
974
976
978
978
977
972
974
976
976
974
975
975
976
980
982
982
983
984
986
988
992
993
992
995
995
997
995
994
991
990
990
991
993
991
991
989
989
993
998
1002
1004
1007
1008
1020
1034
1056
1080
1099
1124
1149
1173
1190
1206
1213
1205
1180
1141
1093
1044
1009
985
974
968
963
967
975
979
982
983
981
982
981
981
981
982
981
978
980
983
982
983
984
984
983
984
986
990
990
989
988
985
988
989
987
985
984
983
984
986
985
986
985
981
982
984
985
985
984
981
985
986
987
986
984
985
986
987
988
987
988
987
989
989
991
990
992
993
999
1002
1002
1003
1004
1005
1007
1010
1008
1007
1008
1009
1015
1018
1023
1020
1016
1016
1016
1018
1018
1016
1013
1009
1009
1009
1006
1002
999
997
996
996
994
990
987
987
987
986
984
981
980
978
980
981
978
978
976
977
981
983
983
984
982
982
984
986
988
988
988
988
992
994
993
992
990
989
992
994
993
992
992
991
991
993
989
988
987
987
989
991
992
991
987
985
985
986
985
985
981
980
982
981
980
977
973
972
972
976
974
975
974
976
979
982
980
981
979
982
985
987
985
985
982
983
984
986
984
984
982
984
985
986
983
983
981
981
982
984
983
981
979
979
981
980
981
980
980
981
983
985
984
983
981
979
981
984
983
982
981
980
980
981
979
980
976
977
980
981
980
978
977
978
983
987
987
989
986
986
987
989
985
984
983
983
985
987
983
983
980
980
982
982
983
982
982
982
985
987
987
986
984
982
984
986
983
982
979
979
981
980
979
978
977
978
980
980
977
976
977
978
980
983
982
980
981
982
988
991
992
993
994
995
995
996
994
993
991
990
993
994
994
994
994
995
997
997
997
997
998
1001
1006
1010
1013
1014
1023
1038
1060
1081
1100
1124
1147
1166
1184
1201
1213
1209
1188
1155
1118
1079
1042
1012
994
984
980
987
995
1000
1000
996
995
992
991
988
985
987
987
988
988
988
984
987
987
991
991
989
991
991
993
996
994
994
992
992
992
992
992
992
989
987
987
989
991
989
987
988
989
991
991
990
987
990
992
992
992
992
990
989
990
992
993
993
992
994
996
1000
1002
1002
1003
1003
1007
1009
1008
1008
1007
1007
1009
1010
1011
1008
1006
1008
1009
1013
1012
1010
1007
1009
1010
1010
1009
1005
1004
1000
998
998
997
992
992
989
988
991
989
989
987
982
982
985
986
985
983
985
985
990
991
990
989
989
994
996
997
997
996
997
998
1000
1000
999
999
999
999
1002
999
994
990
991
991
992
991
989
988
989
988
990
988
987
986
986
988
989
987
987
983
985
984
984
982
981
979
980
981
982
979
978
976
976
980
982
981
980
980
986
990
991
993
991
991
992
992
994
991
991
991
993
996
995
993
988
986
986
986
986
985
983
981
983
986
986
984
982
982
982
983
982
981
980
976
978
978
980
980
978
977
978
977
979
977
978
977
979
981
983
982
981
981
982
985
987
990
991
993
999
1006
1013
1025
1037
1056
1077
1095
1114
1136
1160
1177
1190
1202
1206
1191
1164
1133
1095
1061
1036
1020
1008
1004
1000
1002
1003
1002
997
992
990
988
987
984
982
980
979
980
981
980
977
974
975
976
975
975
973
969
969
972
974
975
975
973
974
977
979
977
976
977
980
984
988
991
992
991
992
993
996
997
996
994
993
996
998
996
995
994
997
998
1001
1003
1001
998
997
998
1000
1000
1000
999
998
1000
1002
1003
1000
997
995
999
1002
1002
999
997
997
998
1002
1002
1000
1000
1001
1003
1003
1001
1003
1000
1000
999
999
998
998
996
998
997
1000
999
996
993
993
995
994
994
992
990
992
992
992
991
987
984
984
984
985
985
984
980
979
980
981
981
977
977
976
977
978
977
975
973
971
971
975
972
973
971
973
975
975
976
976
975
977
979
979
981
982
980
984
984
986
985
985
985
990
992
993
991
989
988
987
991
992
991
990
985
986
988
989
989
988
985
983
986
986
982
979
978
977
979
982
982
980
976
982
982
984
985
984
983
986
988
992
993
994
995
1001
1004
1013
1028
1045
1061
1077
1100
1126
1148
1164
1181
1195
1199
1180
1149
1109
1067
1029
1005
995
990
988
989
995
997
996
991
988
985
983
982
981
979
976
974
974
974
974
974
973
971
972
975
976
977
976
975
978
978
981
986
985
982
985
985
985
984
984
982
984
985
986
985
983
984
984
983
984
987
984
984
984
986
986
987
986
985
988
993
997
1000
1000
1000
1001
1005
1009
1011
1009
1011
1010
1012
1017
1016
1018
1017
1018
1018
1019
1016
1014
1010
1010
1009
1008
1006
1002
997
996
995
992
992
987
984
984
984
983
983
980
977
977
978
977
978
974
971
971
972
972
973
970
968
970
969
970
967
968
966
968
972
977
978
977
978
980
984
986
985
983
983
986
988
989
989
987
984
985
988
988
989
987
986
989
991
991
987
985
984
986
986
987
986
986
981
982
982
984
983
980
977
978
976
974
973
972
969
969
972
973
972
972
972
969
971
974
975
975
974
976
979
980
979
978
976
979
979
979
978
977
976
975
978
980
979
979
977
979
982
982
983
981
982
981
984
984
987
986
983
983
984
985
985
984
980
979
980
980
977
975
971
971
973
973
972
971
969
971
972
972
972
970
970
971
972
973
972
969
967
968
969
970
971
970
970
971
973
974
973
971
968
973
974
976
976
972
972
975
976
978
979
977
975
976
977
981
981
979
978
982
982
982
983
980
979
979
982
981
982
980
978
979
981
983
982
981
979
980
979
981
981
979
976
977
978
981
979
978
978
979
982
984
985
986
986
990
994
1000
1005
1007
1013
1026
1047
1069
1090
1112
1137
1165
1185
1205
1222
1227
1213
1186
1150
1111
1071
1038
1017
1004
996
993
998
1002
1004
1003
1001
998
996
989
985
984
982
982
980
980
978
977
977
979
974
971
972
973
972
973
973
971
972
975
978
982
982
981
981
981
981
982
984
983
983
987
987
991
992
991
988
989
993
997
996
994
992
993
996
996
995
996
994
996
998
999
998
993
992
994
996
998
1000
1000
1000
1001
1002
1003
1002
1002
1000
1001
1003
1005
1007
1004
1003
1003
1005
1007
1007
1006
1002
1004
1005
1009
1009
1008
1005
1006
1006
1009
1009
1005
1003
1002
1002
1002
1002
999
997
997
999
996
996
994
991
991
993
995
995
994
991
991
990
993
994
992
988
990
991
991
993
991
990
992
992
994
995
993
991
994
991
994
993
992
991
991
990
991
990
986
988
988
992
992
991
987
985
988
988
987
988
989
988
993
997
998
996
995
993
993
993
994
992
992
991
990
993
994
992
991
989
987
988
988
990
988
986
985
987
989
987
983
981
984
985
988
988
988
984
984
986
986
988
985
983
983
985
986
987
986
982
982
986
988
987
983
982
981
981
983
982
980
979
982
983
985
988
987
987
990
989
990
989
990
987
989
989
990
991
989
989
991
993
998
998
1001
1000
1005
1014
1027
1046
1065
1081
1102
1127
1150
1170
1180
1191
1201
1200
1185
1160
1128
1094
1057
1031
1016
1006
997
990
991
993
996
995
992
986
986
985
984
985
980
979
981
982
984
984
981
982
981
982
985
984
982
979
981
982
986
985
982
979
981
985
986
987
986
986
986
988
989
988
987
984
983
986
989
989
988
987
984
989
990
991
989
989
991
993
995
998
997
994
995
997
1002
1002
1002
1002
1000
1003
1005
1007
1007
1006
1007
1008
1006
1007
1005
1004
1004
1004
1008
1007
1008
1005
1006
1006
1008
1006
1003
1001
999
1000
1003
1001
999
994
996
996
997
995
993
991
990
992
993
993
990
990
990
990
993
994
990
991
991
993
992
992
992
988
989
989
991
991
989
986
986
989
989
988
987
986
986
987
987
986
982
980
981
983
985
984
982
980
984
987
989
989
989
990
990
992
994
991
990
987
989
992
994
991
989
988
990
991
990
992
991
987
988
991
991
991
991
990
993
994
995
993
992
991
991
991
991
988
986
981
985
985
985
985
981
980
982
984
983
981
981
978
979
979
979
980
980
980
981
985
987
986
988
986
988
989
990
990
989
986
988
989
990
989
988
989
991
994
999
1001
1004
1005
1010
1022
1040
1063
1086
1105
1132
1161
1184
1202
1214
1218
1205
1177
1142
1099
1058
1023
1002
988
983
980
983
986
988
986
985
983
981
978
979
978
980
978
977
975
977
979
979
979
978
977
977
980
982
981
980
978
982
985
987
990
989
987
988
992
993
994
994
991
991
993
993
994
992
991
993
996
997
995
995
994
998
998
1000
1000
1000
999
1002
1004
1006
1008
1009
1007
1008
1011
1012
1013
1012
1012
1011
1013
1015
1020
1018
1019
1015
1018
1019
1017
1014
1012
1011
1008
1007
1005
1003
1000
1000
1000
998
997
995
991
993
997
997
997
993
991
989
990
991
992
989
986
988
990
992
992
990
990
991
992
992
993
992
990
993
994
994
995
996
992
992
993
997
1001
1006
1011
1022
1041
1069
1098
1123
1144
1172
1195
1212
1213
1202
1179
1149
1116
1071
1029
1003
996
997
998
998
998
1000
998
998
994
995
989
986
984
985
986
984
982
980
979
980
980
982
981
977
976
976
978
979
980
978
977
979
978
977
978
976
973
976
977
976
976
975
973
974
976
979
978
979
980
981
982
984
984
984
985
985
985
989
989
989
987
990
994
998
1000
1002
1001
1004
1006
1010
1011
1008
1008
1012
1012
1014
1011
1009
1004
1005
1004
1004
1001
1001
997
997
996
995
994
989
986
986
986
986
985
983
981
983
983
983
981
980
979
980
982
982
982
980
978
979
980
981
978
976
973
975
976
977
978
980
981
986
990
992
990
991
990
989
988
990
990
989
987
989
989
991
989
987
984
984
985
986
987
986
985
985
986
986
985
983
983
982
982
984
983
981
978
978
979
979
979
975
974
975
976
978
977
976
974
975
976
977
976
973
975
975
977
978
981
982
983
985
987
989
988
988
987
986
989
990
988
988
987
989
990
991
988
989
989
990
991
991
991
988
990
993
997
1002
1006
1013
1025
1047
1068
1090
1114
1140
1164
1187
1205
1217
1217
1195
1157
1114
1071
1035
1009
990
982
979
983
986
986
981
975
973
974
975
972
970
968
969
973
976
978
978
979
982
984
985
982
979
979
981
984
984
981
981
981
981
985
986
987
985
983
985
988
990
990
988
988
987
989
989
987
987
986
988
988
988
986
986
987
989
988
990
989
988
987
987
990
990
989
989
988
990
992
992
994
994
995
996
997
999
1001
1001
1000
1001
1006
1007
1009
1010
1009
1008
1006
1009
1005
1002
1001
1001
1000
1001
1000
998
995
994
996
996
994
995
992
992
992
992
992
990
989
991
990
992
989
990
988
987
989
989
989
989
985
986
988
990
991
989
989
991
993
994
994
993
992
992
994
995
994
989
992
995
999
999
999
995
992
994
997
997
995
993
991
991
994
995
993
989
989
992
990
991
989
988
988
988
990
991
989
988
985
988
988
987
987
984
983
985
988
990
992
990
988
989
992
992
988
988
987
988
990
988
988
984
982
985
990
992
989
989
989
993
997
999
996
996
997
1001
1003
1008
1011
1014
1025
1046
1068
1088
1107
1132
1153
1172
1189
1200
1204
1196
1174
1143
1109
1071
1037
1018
1006
1002
1001
1000
1002
999
998
999
998
997
995
992
988
988
987
986
982
980
978
976
976
977
977
976
977
980
982
985
984
984
983
984
985
987
988
987
985
988
990
988
989
988
989
989
988
991
990
989
990
990
994
996
996
994
995
996
997
997
1001
999
1001
1001
1003
1005
1005
1006
1004
1004
1004
1004
1005
1002
1002
1003
1005
1004
1008
1007
1008
1011
1011
1011
1009
1006
1003
1004
1003
1002
1002
999
996
996
997
998
997
995
992
993
993
992
992
990
989
989
991
992
992
991
993
994
995
996
994
992
991
990
989
987
988
985
985
989
987
989
988
988
987
989
990
992
993
993
992
991
994
997
994
994
993
993
992
992
989
988
989
990
993
993
991
991
989
991
993
994
993
991
991
989
989
991
989
988
987
988
992
993
992
990
991
991
994
993
993
989
989
990
990
990
990
985
984
988
988
988
987
989
989
993
994
993
993
994
993
995
997
995
994
994
995
998
1001
1006
1008
1015
1033
1057
1076
1096
1117
1137
1160
1179
1198
1213
1216
1202
1174
1139
1100
1062
1029
1007
996
988
986
991
996
999
998
997
993
991
988
985
982
980
983
985
982
983
982
984
985
984
986
985
981
982
984
983
982
979
981
979
983
983
982
980
979
979
980
979
978
979
978
980
981
982
982
982
981
984
986
989
990
991
995
997
999
1002
1002
1002
998
1003
1006
1008
1009
1008
1010
1010
1014
1016
1016
1015
1016
1019
1021
1023
1024
1020
1019
1021
1019
1017
1014
1012
1007
1006
1005
1002
1000
997
993
993
992
990
987
985
981
979
981
978
978
976
976
976
979
979
978
977
979
982
984
986
987
989
987
991
997
998
998
997
995
996
999
998
997
995
995
994
995
997
997
994
993
995
994
994
994
993
991
991
992
994
992
988
986
987
987
987
986
986
982
981
982
983
983
983
981
980
982
983
982
980
978
980
983
984
985
987
987
988
991
995
996
994
992
994
999
1002
1004
1004
1004
1007
1011
1014
1017
1025
1041
1065
1087
1110
1131
1155
1176
1193
1211
1218
1207
1181
1141
1093
1049
1014
991
975
966
968
978
984
984
981
977
977
978
977
975
974
972
975
976
977
976
976
975
975
977
979
978
976
975
980
984
987
988
986
983
985
986
987
987
986
985
986
989
989
987
988
987
989
989
991
990
988
987
988
989
991
991
987
987
986
988
989
987
988
987
990
993
994
995
994
995
994
997
999
998
996
997
999
1001
1003
1002
1001
999
1001
1002
1003
1002
1001
999
999
1001
1002
1001
999
997
998
997
997
997
996
996
999
997
996
993
991
991
990
993
993
988
985
984
986
986
987
987
988
990
991
990
990
987
987
984
985
987
989
987
985
985
989
990
990
988
986
983
985
987
989
987
986
984
986
986
987
987
983
982
984
983
984
983
980
981
982
982
983
982
980
980
980
985
985
984
984
982
983
984
985
984
981
982
983
985
984
984
982
982
981
984
984
983
980
980
980
982
982
982
980
981
979
981
979
979
977
977
981
982
984
983
983
979
982
981
982
980
978
974
976
977
978
978
975
974
977
983
985
982
981
980
981
981
985
983
982
980
985
985
986
986
983
982
987
989
992
995
998
1001
1007
1014
1028
1044
1064
1083
1105
1130
1156
1173
1182
1193
1197
1194
1171
1139
1102
1062
1034
1021
1013
1006
997
995
996
994
991
988
986
984
985
986
987
985
982
979
979
979
978
979
976
975
976
978
978
975
974
974
976
978
979
981
979
978
981
982
984
983
981
982
982
985
988
987
985
985
986
987
987
990
987
987
991
994
996
994
993
992
994
995
995
997
996
996
998
1000
1000
1001
999
1000
1001
1001
1003
1002
1001
1002
1006
1008
1010
1006
1004
1006
1009
1009
1008
1007
1005
1001
1004
1003
1002
999
996
995
993
995
994
992
991
991
992
991
993
991
989
989
988
990
991
989
990
987
990
990
989
988
986
984
987
987
988
984
982
983
985
988
989
988
986
984
985
988
988
985
984
983
984
986
988
988
988
989
989
991
993
989
987
986
989
990
991
990
988
985
988
988
989
988
986
984
986
987
987
988
986
984
988
987
989
988
985
984
985
987
988
987
987
984
985
986
984
983
978
976
977
979
979
978
979
978
980
981
978
978
978
978
979
978
978
979
979
980
979
981
980
978
979
978
981
983
985
984
983
982
984
983
983
982
979
980
983
984
985
983
982
984
986
986
986
985
985
986
990
994
997
998
1000
1003
1015
1036
1056
1077
1095
1114
1137
1158
1171
1183
1189
1188
1174
1147
1111
1071
1032
1008
999
993
993
991
991
992
990
990
988
983
982
979
977
977
978
977
975
977
979
979
979
978
978
980
981
983
982
979
979
979
980
980
979
978
977
978
979
982
981
980
982
984
988
990
988
988
987
987
988
990
990
990
991
991
995
996
996
997
996
996
995
998
997
997
996
995
995
998
1000
998
999
1003
1007
1011
1011
1011
1009
1009
1011
1010
1011
1012
1010
1008
1008
1008
1008
1006
1002
1000
996
997
996
996
996
995
996
995
995
992
988
986
986
987
984
983
982
980
983
984
984
984
985
985
987
988
988
989
988
988
986
989
990
987
986
983
985
986
986
986
987
989
994
997
996
995
993
992
999
1002
1008
1011
1016
1024
1041
1061
1086
1108
1123
1139
1160
1182
1203
1214
1216
1208
1191
1163
1128
1085
1040
1009
998
995
994
992
990
990
991
992
991
987
982
979
981
981
981
980
979
977
976
979
978
977
974
970
971
971
970
969
968
969
971
972
973
975
973
971
974
978
977
974
973
974
973
975
977
978
975
974
975
976
976
975
975
974
978
978
980
978
978
979
981
981
983
984
984
985
988
989
990
988
990
990
994
995
997
996
995
997
1001
1003
1004
1003
1000
1001
1001
1004
1005
1002
1001
1000
1002
1003
1003
1000
996
993
993
997
995
992
990
988
989
988
989
987
985
984
985
985
985
983
981
979
978
980
981
978
976
978
978
981
981
979
978
977
981
981
983
982
983
980
983
984
984
982
982
982
982
983
984
982
980
982
979
984
984
984
982
981
983
984
982
982
980
979
980
978
979
976
976
976
977
979
977
975
973
972
972
974
971
971
970
970
971
970
970
970
967
966
967
969
971
969
969
972
972
972
971
971
969
969
970
970
971
969
969
969
973
976
978
979
978
980
984
985
983
983
981
982
983
986
987
987
987
988
990
990
990
991
991
993
996
1003
1005
1009
1017
1035
1055
1076
1097
1124
1148
1170
1192
1210
1217
1206
1179
1144
1106
1066
1031
1006
989
978
978
982
986
985
980
975
973
972
969
966
962
960
962
961
964
964
965
966
970
975
977
978
975
976
979
981
982
982
980
981
982
984
986
984
981
980
984
985
986
986
983
984
984
989
989
988
986
985
988
988
990
990
987
987
990
991
990
990
987
985
989
989
990
988
985
982
983
984
985
985
982
982
984
987
990
990
989
992
996
998
1002
1001
1001
1002
1005
1006
1005
1005
1004
1005
1006
1003
1004
1002
999
996
998
998
998
998
996
996
997
998
999
997
994
994
997
998
999
997
993
991
992
994
992
991
989
988
990
989
989
988
984
984
985
985
985
983
981
979
978
982
983
982
979
980
980
981
980
978
976
975
977
979
984
989
990
992
993
993
994
992
990
989
992
992
992
988
989
990
993
994
993
993
990
988
991
990
991
989
988
989
988
988
987
985
983
981
979
980
978
980
978
978
978
979
977
978
978
978
979
979
982
982
983
983
984
987
988
989
987
990
995
999
1002
1007
1016
1032
1054
1074
1093
1111
1130
1155
1174
1188
1198
1203
1192
1168
1139
1105
1069
1040
1024
1015
1010
1006
1004
1003
1000
996
994
993
989
987
984
981
980
981
982
979
977
973
975
973
975
975
970
970
973
972
973
973
972
971
976
977
979
977
976
976
980
980
979
980
980
981
984
985
987
989
989
990
992
995
997
996
997
996
996
996
998
998
997
996
998
998
997
997
996
996
996
998
998
997
994
995
996
997
996
996
995
993
995
996
995
995
990
991
991
990
991
987
986
986
987
989
989
986
986
986
988
989
986
984
984
983
984
988
988
989
988
990
992
993
992
990
987
988
989
991
990
989
989
988
990
991
991
988
985
983
987
987
987
985
983
982
983
986
985
985
981
980
982
984
981
979
978
979
980
980
982
979
978
979
981
982
981
981
980
979
980
981
982
980
978
980
981
984
982
979
977
975
977
979
980
979
976
978
979
982
980
978
978
978
981
984
983
981
982
981
981
985
981
979
977
978
980
982
981
976
975
976
978
980
978
977
978
981
987
990
990
995
995
995
1004
1022
1039
1059
1078
1098
1127
1152
1169
1183
1194
1191
1170
1139
1102
1059
1020
998
987
985
982
983
985
986
990
992
988
985
984
982
986
985
984
983
982
980
982
985
984
981
979
979
980
982
982
982
980
979
982
982
982
982
980
982
986
987
983
982
980
979
981
982
981
979
979
979
981
982
981
978
977
979
979
982
983
982
983
986
989
994
994
994
989
990
993
994
994
993
995
995
999
1002
999
1002
1000
1002
1003
1006
1004
1002
1000
1000
998
998
998
992
988
988
990
991
991
990
989
985
987
986
983
983
983
984
984
989
988
988
988
988
988
989
988
988
988
989
989
990
987
987
985
985
987
990
989
989
988
985
988
988
988
988
989
989
992
996
1002
1008
1016
1034
1058
1086
1110
1127
1146
1171
1194
1206
1205
1190
1160
1121
1080
1042
1016
1005
1003
1001
999
1001
1001
999
992
990
989
990
988
984
983
980
978
979
976
976
972
970
971
972
972
969
967
965
965
967
965
963
961
960
961
963
962
961
960
960
962
963
964
966
965
967
971
972
975
977
976
977
979
982
984
981
981
979
983
985
984
983
985
986
988
991
995
996
997
997
998
1002
1003
1002
999
998
997
998
997
994
991
988
987
988
985
983
982
981
982
983
982
981
979
979
986
989
993
998
1000
1010
1027
1047
1062
1074
1086
1097
1105
1110
1106
1100
1092
1091
1094
1096
1097
1095
1096
1098
1100
1101
1097
1096
1092
1091
1090
1088
1073
1055
1039
1023
1014
1002
990
979
971
966
960
957
954
953
951
949
953
954
952
950
949
950
951
953
951
952
951
953
955
957
956
957
954
953
953
955
956
956
957
955
958
964
963
964
965
966
967
970
971
968
968
969
972
977
975
975
971
975
976
978
978
979
978
983
987
993
994
997
999
997
1002
1006
1007
1008
1010
1012
1015
1016
1017
1014
1014
1013
1012
1012
1010
1005
1002
1000
998
998
995
991
991
990
989
993
990
989
984
983
984
983
982
978
977
976
976
977
975
974
967
971
970
972
969
968
967
966
970
970
969
969
968
968
971
970
969
967
966
968
971
972
969
966
966
966
969
969
966
965
965
966
967
969
969
967
967
968
971
973
973
973
970
972
973
975
974
974
973
971
970
971
972
971
969
969
972
974
970
969
968
966
966
970
968
968
965
964
964
968
968
967
964
964
964
967
967
968
966
968
967
970
971
971
969
967
971
974
976
975
976
979
984
992
999
1002
1006
1011
1024
1043
1061
1076
1093
1116
1139
1159
1171
1182
1183
1176
1151
1118
1073
1033
1007
997
991
989
985
987
983
983
980
977
973
972
967
968
968
968
966
963
963
961
962
965
963
963
963
963
963
966
964
963
963
964
966
967
967
966
966
966
969
967
967
966
965
966
966
970
972
973
973
973
975
977
980
981
981
982
983
986
989
989
988
989
990
992
992
991
990
988
991
993
995
993
995
999
1001
1005
1006
1004
1004
1004
1005
1006
1007
1004
1001
1000
999
1001
999
994
990
989
985
985
985
979
981
981
982
984
982
979
979
980
982
983
984
982
984
984
985
988
988
988
989
987
989
991
991
989
988
989
990
993
995
993
993
992
992
993
994
993
991
991
991
991
989
986
983
981
981
982
982
980
977
976
975
976
975
973
968
967
967
970
969
968
968
967
967
970
970
968
969
974
982
989
999
1015
1034
1055
1076
1096
1117
1133
1145
1156
1164
1170
1162
1139
1110
1073
1040
1025
1017
1011
1003
999
996
997
995
990
984
983
980
981
980
975
971
971
969
972
972
971
966
965
967
967
968
965
964
964
963
966
965
963
960
961
960
965
964
962
959
960
961
966
965
969
966
968
973
976
979
979
978
980
985
985
987
987
984
986
987
987
990
987
984
985
986
988
988
987
986
988
987
992
993
991
991
990
991
992
989
990
988
988
988
988
987
984
979
980
980
981
981
978
974
974
975
977
975
972
969
970
973
975
975
974
972
972
975
978
983
982
982
985
988
987
989
984
982
982
984
984
984
981
980
982
982
984
982
980
976
978
979
981
980
978
973
972
975
977
976
971
970
973
975
977
977
973
970
971
973
974
977
976
974
975
978
979
980
978
975
974
975
977
977
975
972
974
976
976
975
972
970
969
968
970
969
968
968
972
976
981
981
980
976
977
976
979
978
977
974
973
976
973
974
973
970
970
970
972
972
972
970
970
971
973
974
975
974
975
974
976
977
976
977
978
977
980
978
977
976
976
976
978
976
976
974
975
977
976
975
973
970
973
974
974
972
970
967
972
974
974
976
976
975
975
978
980
981
980
978
979
980
981
981
979
978
977
978
981
981
980
976
976
976
978
978
977
976
978
978
980
980
981
977
975
979
980
982
980
980
983
990
993
998
1003
1005
1014
1027
1046
1067
1088
1107
1132
1157
1177
1194
1209
1217
1212
1190
1156
1114
1069
1027
1000
984
971
964
960
964
978
986
990
991
987
985
984
984
983
983
982
983
985
985
983
980
978
975
978
978
979
977
975
972
973
973
974
973
972
973
976
975
978
977
976
973
973
977
979
978
976
974
974
974
975
974
972
973
974
974
976
976
973
971
975
976
978
980
981
977
980
983
987
984
984
982
986
990
997
1000
1003
1004
1008
1012
1015
1018
1018
1017
1018
1021
1022
1021
1022
1022
1022
1023
1022
1021
1018
1017
1016
1018
1018
1015
1014
1009
1009
1007
1006
1003
1000
998
996
996
996
992
987
987
987
989
989
988
983
981
984
983
987
984
985
981
984
986
991
991
988
986
989
992
994
994
992
994
996
998
1001
1000
999
1000
1003
1006
1010
1013
1014
1016
1029
1046
1069
1093
1115
1133
1153
1171
1190
1204
1209
1204
1193
1170
1140
1103
1065
1033
1011
998
994
988
985
982
986
989
989
985
980
976
975
974
977
973
971
969
971
972
972
972
972
969
973
972
974
975
975
973
974
977
976
977
975
974
977
979
981
981
982
982
983
988
990
989
986
983
984
983
984
983
984
981
980
980
980
983
982
981
982
984
985
987
985
982
983
984
988
989
988
986
987
989
994
995
997
995
999
1001
1004
1005
1003
1003
1001
1002
1001
1000
998
995
993
994
991
988
985
980
978
978
978
979
974
972
972
973
972
971
970
968
968
969
971
970
970
969
970
971
974
974
975
974
975
976
980
981
982
980
981
985
987
988
989
988
990
991
993
994
993
989
991
991
994
992
991
990
992
993
993
993
990
989
990
989
987
984
983
981
980
978
980
978
978
974
975
975
976
975
972
972
972
972
972
970
971
967
967
968
968
968
964
963
962
965
966
965
966
964
968
971
975
975
977
976
979
979
980
979
977
977
977
982
985
988
989
988
990
992
991
991
988
986
985
985
987
986
984
983
981
982
985
984
980
979
977
979
981
981
981
981
983
987
989
992
996
997
1006
1020
1037
1055
1071
1086
1109
1132
1146
1157
1167
1169
1164
1148
1125
1093
1059
1029
1010
999
993
989
985
985
988
992
992
989
986
982
984
987
989
991
987
982
983
984
983
980
978
974
974
978
978
975
973
969
970
971
972
972
971
970
971
972
974
972
972
970
972
972
974
972
970
968
969
972
972
972
970
969
969
970
972
971
971
969
972
972
974
975
975
972
973
975
976
975
975
973
976
978
981
983
986
986
991
994
998
998
996
995
997
999
1000
1001
999
998
1000
1001
1005
1004
1002
1001
1001
1000
1001
999
995
992
991
993
993
988
985
980
982
986
982
982
979
976
977
976
979
976
975
971
972
974
975
973
972
970
970
971
973
975
974
974
974
974
979
979
981
982
982
988
989
987
984
980
980
981
985
984
980
977
979
983
985
986
984
980
982
978
980
978
978
974
975
975
978
974
972
970
969
971
971
970
968
966
967
966
968
966
961
960
961
963
964
964
963
960
962
965
967
965
964
967
967
975
979
980
980
978
980
982
985
985
982
981
981
983
984
983
982
978
980
982
986
984
984
980
981
981
982
981
982
983
988
993
997
996
1004
1018
1039
1060
1080
1101
1122
1143
1162
1177
1189
1185
1163
1125
1086
1043
1010
985
973
962
961
964
971
972
970
966
965
965
967
966
963
962
965
968
971
969
968
967
969
972
971
973
971
968
973
974
975
972
970
969
971
971
971
971
968
966
966
968
970
967
964
962
966
968
971
968
968
964
966
968
971
970
968
969
969
970
975
975
976
975
977
978
979
979
979
980
984
987
990
990
993
993
995
998
999
999
998
999
998
998
999
995
994
990
989
988
986
985
981
977
977
974
977
974
973
972
972
974
976
976
974
975
974
974
976
974
974
972
971
974
974
973
972
971
973
974
977
976
975
976
977
982
983
984
983
984
988
992
998
999
1006
1015
1038
1067
1095
1118
1134
1154
1177
1198
1211
1217
1207
1188
1160
1125
1086
1041
1007
993
992
991
989
983
980
978
978
977
974
971
967
965
962
964
963
960
959
957
957
960
960
960
957
955
956
958
958
955
956
956
960
963
964
964
963
960
960
962
964
963
963
963
964
968
968
969
969
967
969
971
973
972
971
971
972
975
978
975
974
972
971
973
977
977
975
973
974
976
977
976
975
975
977
978
980
979
978
976
980
983
982
979
980
977
978
979
979
974
971
968
971
971
971
969
966
963
966
967
968
971
970
969
970
971
969
970
972
970
971
972
974
973
973
971
971
972
973
972
970
970
970
970
969
971
968
968
968
969
971
970
967
964
963
963
965
963
961
962
959
963
966
961
960
958
960
962
962
960
958
955
956
960
960
960
958
958
959
962
963
962
962
962
964
966
965
964
962
958
960
961
963
962
960
961
962
965
966
965
965
964
965
968
969
968
967
964
965
965
964
964
961
961
963
964
967
966
966
966
968
968
971
974
975
977
981
990
1002
1020
1040
1059
1082
1106
1130
1149
1161
1171
1175
1166
1146
1116
1078
1039
1008
990
981
974
972
970
973
975
975
971
967
963
963
962
963
961
959
959
959
960
961
960
958
955
955
956
958
957
957
956
957
959
962
961
956
956
957
957
959
959
957
957
958
961
964
963
963
961
965
964
966
968
968
964
967
970
971
969
968
966
969
971
974
973
971
971
974
977
979
980
978
978
980
981
985
984
985
984
985
986
986
985
982
980
981
983
982
981
977
972
972
972
972
972
971
969
971
971
971
969
967
966
967
970
971
970
972
969
969
970
969
969
970
969
969
972
975
975
974
974
976
977
976
976
974
973
973
977
978
977
975
973
976
976
975
974
971
969
969
973
972
972
971
966
969
968
969
965
964
963
961
961
963
959
956
954
955
958
960
957
956
956
958
959
960
961
961
959
960
960
957
957
957
955
957
960
962
961
962
962
965
967
967
969
966
964
966
966
967
967
965
965
967
967
969
969
967
966
965
967
968
971
967
964
962
963
964
961
959
957
958
960
960
961
959
958
958
960
960
958
956
956
956
957
958
955
957
956
960
962
963
963
960
959
962
962
965
964
963
962
964
963
965
963
964
964
966
970
972
972
970
969
968
971
972
972
969
968
967
969
969
969
965
962
965
965
967
963
965
963
967
971
979
982
984
987
1001
1020
1044
1063
1082
1102
1125
1140
1155
1165
1162
1144
1120
1090
1057
1025
1003
992
987
984
981
978
978
979
980
979
980
977
976
975
976
975
976
974
972
970
970
971
972
970
969
967
967
967
967
965
963
965
968
968
968
967
966
965
967
970
969
968
967
967
968
969
971
970
968
968
969
971
972
973
971
968
968
966
967
966
966
965
968
970
972
971
972
972
976
975
980
983
984
985
988
989
992
992
993
992
994
996
999
999
997
994
994
994
996
992
991
990
988
989
989
986
983
979
978
978
979
977
976
971
971
971
973
972
967
965
966
968
967
969
967
967
969
971
971
975
972
970
970
972
975
973
972
973
978
979
980
978
977
975
977
977
978
977
976
974
976
978
979
978
976
973
974
976
975
975
972
971
971
970
969
967
968
966
967
967
971
969
967
962
964
967
969
971
970
971
973
975
976
974
972
968
971
972
974
974
971
967
969
970
973
970
971
968
969
971
975
973
970
971
971
974
976
976
972
971
974
976
977
976
975
972
972
973
972
972
970
970
975
978
982
983
987
989
1004
1025
1046
1068
1094
1122
1152
1175
1193
1200
1189
1161
1123
1080
1040
1005
986
972
967
971
978
983
985
977
975
974
973
971
969
967
966
968
968
967
966
966
967
969
970
970
968
967
968
967
968
969
967
963
964
964
967
965
965
963
964
964
966
967
965
963
964
968
971
972
971
971
974
978
981
980
978
978
978
980
980
981
979
979
980
978
983
982
981
981
984
988
989
988
987
988
988
991
991
988
988
985
983
984
983
979
975
972
971
972
971
970
967
962
960
962
962
962
959
957
958
959
959
958
955
955
958
960
962
963
964
964
967
969
970
967
965
963
970
973
973
971
971
973
974
977
978
978
976
975
976
977
976
977
974
974
975
973
975
973
970
968
969
969
970
969
968
967
967
968
968
965
962
961
964
965
964
962
961
959
959
958
961
961
960
957
958
959
963
962
961
962
967
968
970
971
966
966
969
970
971
972
973
972
975
976
975
974
970
970
969
970
970
968
965
965
967
967
968
966
964
964
967
969
970
970
969
973
978
982
990
1001
1019
1041
1064
1088
1113
1142
1162
1180
1193
1197
1177
1141
1102
1060
1022
1001
987
979
972
975
982
988
988
986
981
979
979
980
979
977
972
972
974
972
971
967
965
962
961
963
963
962
960
959
960
961
963
962
961
958
961
960
960
960
960
959
963
966
967
967
966
966
969
971
972
971
971
972
972
975
978
977
979
979
981
985
985
985
985
986
988
988
987
987
987
986
988
987
988
988
988
988
989
988
989
990
989
987
989
987
984
983
982
979
980
980
980
977
977
976
974
974
974
971
970
969
971
972
973
974
974
972
973
975
976
975
975
974
977
977
975
973
972
972
975
978
978
977
975
975
978
977
977
979
974
976
977
978
978
973
973
973
974
976
975
977
973
973
974
976
975
974
973
974
973
974
971
971
970
968
970
971
970
972
970
971
972
972
973
972
970
969
969
970
971
971
972
970
971
971
974
974
971
970
973
972
973
972
970
969
970
975
974
974
972
972
972
977
977
977
976
976
977
982
984
987
989
988
992
999
1015
1033
1052
1071
1095
1124
1148
1164
1176
1184
1180
1161
1131
1094
1053
1018
1001
995
987
981
979
977
979
978
977
974
972
971
973
975
975
976
974
970
972
972
973
974
972
970
970
971
971
971
969
968
971
973
973
974
971
970
971
973
974
973
971
970
970
972
975
976
975
976
975
978
979
980
980
978
979
980
979
981
981
979
981
983
986
986
985
985
987
991
990
991
990
991
993
995
996
996
993
993
994
994
994
992
991
989
990
991
992
989
987
985
983
984
981
982
980
976
977
977
977
976
975
972
975
975
971
974
975
975
974
975
973
973
971
971
973
974
974
970
971
971
971
971
972
971
969
968
971
972
972
969
971
969
971
970
969
971
972
968
970
971
972
973
971
969
972
973
975
972
972
972
973
974
974
973
971
970
973
974
975
975
971
972
973
974
974
972
971
970
971
972
971
971
970
968
966
969
970
969
968
965
966
966
966
964
962
961
963
963
964
964
959
957
960
960
960
957
957
956
961
961
963
961
962
962
965
967
968
969
969
967
968
969
972
972
971
967
972
974
974
972
971
970
973
974
975
977
972
971
973
974
974
972
970
969
970
971
975
973
974
972
972
973
975
973
971
969
970
972
969
969
968
964
963
963
964
961
959
956
958
961
965
968
971
972
975
975
978
976
976
975
975
976
978
979
978
976
978
981
979
978
978
977
978
980
981
983
981
980
980
982
986
986
989
993
998
1003
1010
1025
1041
1060
1080
1108
1130
1150
1162
1177
1186
1184
1162
1127
1088
1046
1011
992
979
969
965
967
976
984
985
986
982
978
977
978
976
971
970
968
967
968
967
966
965
967
967
970
973
973
973
973
974
975
975
975
972
972
972
974
975
974
973
972
974
975
975
975
972
971
973
975
973
975
971
971
974
974
974
975
976
974
977
979
978
980
978
981
979
985
987
988
992
993
996
998
1001
1000
998
998
1001
1001
1002
1000
999
998
1000
1004
1004
1003
1002
1001
997
999
998
994
991
990
989
989
989
986
984
984
981
980
979
978
975
974
974
976
975
975
973
971
972
970
969
967
967
967
968
970
971
971
970
971
970
969
970
969
967
967
968
968
969
968
968
967
970
970
972
973
972
972
975
975
975
974
971
970
972
974
974
974
972
973
975
977
979
977
974
974
977
977
976
975
971
967
972
974
973
967
968
966
968
969
969
968
966
967
969
969
970
966
966
966
966
967
967
964
962
962
964
964
964
960
959
959
961
963
965
965
964
962
968
966
967
965
964
964
966
968
967
964
962
960
964
966
967
962
963
959
960
960
961
960
957
954
956
957
958
959
958
959
960
965
969
971
973
973
975
976
977
977
975
975
975
974
976
976
973
971
972
973
974
974
971
971
974
975
978
976
978
977
980
980
981
981
978
978
979
980
978
978
976
977
977
980
978
977
975
975
976
975
974
971
969
967
972
972
973
971
968
968
969
970
969
967
965
966
969
975
975
978
978
983
997
1017
1037
1058
1076
1097
1121
1145
1165
1183
1196
1199
1192
1169
1135
1096
1057
1023
998
983
974
966
967
970
979
982
984
979
977
972
974
974
974
971
969
968
970
972
970
968
964
962
963
965
965
961
959
961
962
964
963
962
963
962
963
966
967
968
967
967
969
970
970
973
972
971
975
981
986
987
989
989
992
993
992
991
992
992
993
993
993
994
992
991
991
991
993
992
992
992
993
995
996
993
991
992
994
995
996
995
994
993
992
991
992
990
989
990
990
990
989
986
982
979
981
984
982
981
979
976
978
977
977
973
972
973
974
976
975
974
974
976
981
983
983
983
980
981
980
981
980
979
977
977
980
981
983
981
978
978
980
982
982
979
977
976
976
976
975
975
971
971
972
973
974
972
968
967
968
970
970
969
966
966
968
970
970
969
967
965
967
968
969
971
971
968
971
974
975
972
971
970
970
969
970
969
968
970
973
978
982
985
984
984
986
985
984
982
981
981
985
985
983
983
979
980
979
979
978
977
975
974
975
978
976
975
974
972
974
976
974
971
970
968
970
971
972
972
970
971
971
973
969
971
968
968
969
973
973
974
974
975
979
982
984
983
984
988
991
996
1003
1017
1031
1046
1065
1089
1112
1137
1158
1172
1187
1192
1184
1161
1133
1099
1063
1036
1018
1007
1001
996
994
992
993
990
987
981
978
977
976
976
973
972
972
972
970
970
968
967
967
965
966
964
965
962
963
962
964
965
964
964
965
965
965
964
966
967
969
971
973
973
971
970
974
975
974
974
972
974
976
976
978
982
983
984
989
991
992
992
994
995
996
997
997
997
996
998
1000
1000
999
1001
1002
1002
1005
1006
1004
1005
999
998
999
1000
999
997
995
990
991
989
985
981
976
978
977
978
975
973
974
973
975
973
970
969
965
962
962
964
962
960
960
959
959
960
960
959
961
962
966
969
972
972
972
974
974
976
976
976
975
975
977
978
977
975
973
971
972
975
973
972
969
967
967
967
966
965
965
963
966
970
969
968
967
967
969
967
966
967
966
967
967
969
970
969
966
967
967
968
967
966
963
962
961
965
964
963
963
964
968
971
973
972
971
972
973
975
974
972
972
971
974
974
975
973
970
967
968
970
969
970
969
968
970
972
973
969
968
967
970
972
971
971
970
971
975
978
979
981
981
985
990
995
1002
1014
1029
1048
1071
1091
1114
1136
1154
1169
1186
1189
1176
1144
1105
1064
1022
994
981
970
965
969
976
984
984
981
976
973
971
973
969
965
965
965
964
966
964
963
961
961
963
969
967
966
966
966
967
968
968
968
965
967
967
969
968
967
966
969
973
975
974
972
971
970
975
976
974
973
971
973
975
976
977
977
975
976
979
979
981
979
977
978
981
985
986
990
992
995
999
1004
1003
1004
1003
1005
1006
1005
1006
1004
1002
1002
1003
1003
1002
998
996
993
993
994
991
987
984
981
982
981
981
980
975
975
976
977
973
970
970
969
970
972
973
971
968
967
964
966
965
964
966
965
970
970
967
968
964
964
966
967
967
968
969
969
975
980
983
985
987
993
1001
1010
1026
1046
1069
1092
1118
1139
1164
1189
1208
1215
1209
1189
1159
1121
1077
1035
1010
1002
999
993
983
979
980
980
978
973
968
967
965
965
965
961
959
958
957
959
960
959
958
959
957
958
956
953
951
951
952
955
955
955
957
960
968
970
971
972
969
971
972
973
970
970
969
968
970
973
971
971
970
968
972
975
975
973
972
972
975
978
978
977
976
980
983
986
986
986
984
986
987
988
987
986
983
984
984
985
983
980
979
979
980
981
977
972
969
965
965
967
968
967
967
968
971
972
974
972
971
969
972
973
973
972
967
967
969
973
972
968
965
967
965
966
967
968
966
964
966
969
968
966
963
962
965
967
967
968
967
968
970
970
968
968
963
966
965
966
967
965
963
965
964
964
964
962
959
958
961
961
960
963
965
968
971
974
974
974
973
973
978
982
986
988
991
1001
1023
1047
1067
1089
1113
1135
1159
1176
1189
1186
1164
1129
1091
1050
1017
992
975
965
968
972
976
976
974
971
972
971
968
963
960
960
961
959
958
954
953
953
954
955
955
954
953
956
958
958
960
960
962
965
965
968
965
963
963
962
965
967
964
962
960
963
961
964
964
963
964
965
970
971
973
973
970
972
973
974
976
977
976
976
976
977
976
975
975
976
979
982
982
983
982
984
985
986
988
986
982
984
985
985
984
982
982
981
980
983
979
979
979
978
981
977
978
979
974
975
977
979
979
979
979
978
978
980
979
978
977
976
975
979
978
976
974
974
974
977
976
975
973
973
974
976
976
974
970
970
971
973
974
969
967
965
966
965
965
962
961
958
961
964
964
966
966
966
969
971
971
968
968
968
972
976
974
976
979
978
980
984
982
982
979
980
978
979
979
978
977
976
976
977
976
976
973
974
974
976
976
975
972
973
972
975
975
974
970
969
972
975
974
971
968
969
969
972
972
973
975
977
985
996
1009
1029
1048
1070
1094
1121
1141
1158
1171
1181
1178
1161
1127
1085
1043
1014
1003
997
991
987
987
988
988
988
983
980
977
976
975
975
971
970
968
968
968
968
967
967
965
963
963
964
964
964
961
963
966
969
968
968
967
964
966
967
967
966
966
967
968
970
969
970
970
972
973
977
978
979
980
977
980
983
985
984
984
986
987
991
990
992
992
992
994
997
996
998
996
997
997
1000
998
996
995
994
994
996
993
990
986
986
987
990
988
986
983
979
982
982
979
975
968
968
968
969
967
967
964
965
966
967
969
968
968
971
972
974
973
972
971
971
973
974
975
974
972
975
976
981
982
979
977
975
978
980
978
973
973
974
975
974
974
972
971
971
975
976
974
973
971
969
969
970
967
964
963
962
964
966
964
962
960
960
962
964
962
961
959
960
962
965
963
963
962
965
967
970
968
966
967
967
969
971
967
967
964
964
966
967
968
965
966
965
967
967
966
965
967
969
972
974
973
972
969
968
968
970
967
966
964
963
965
967
966
965
962
962
966
965
966
964
963
963
965
968
966
966
964
964
966
968
968
968
968
970
972
975
975
973
972
973
976
976
977
975
975
973
973
973
970
968
967
969
972
971
972
972
971
972
971
971
971
968
967
967
968
968
968
967
966
965
967
969
968
968
967
965
967
967
968
967
965
967
970
971
972
970
970
969
972
974
975
973
970
970
972
976
977
975
973
974
975
976
975
973
977
978
978
983
984
984
984
984
986
988
987
987
987
989
993
999
1001
1003
1012
1030
1055
1080
1107
1134
1158
1180
1199
1215
1212
1194
1159
1118
1074
1039
1007
986
970
965
970
978
982
982
981
978
978
978
974
972
971
972
974
976
973
972
971
972
974
976
975
974
974
976
977
979
978
976
973
974
974
977
974
973
970
972
974
975
975
975
975
977
979
978
979
975
976
976
979
978
977
977
977
977
978
979
979
979
978
981
984
988
989
989
988
992
994
997
995
995
997
999
1000
1002
1005
1005
1005
1007
1009
1012
1010
1008
1007
1007
1006
1007
1005
1001
998
997
995
995
994
989
988
986
985
984
982
979
977
979
979
981
977
978
974
974
976
977
977
974
973
976
976
975
975
975
974
977
979
982
982
979
980
982
985
985
984
982
983
984
986
987
987
986
985
986
984
986
986
984
982
981
985
983
984
981
979
976
976
978
975
973
970
972
974
978
977
977
975
974
978
980
978
978
976
977
979
981
981
979
976
977
978
980
979
977
973
975
977
980
982
980
980
980
981
982
982
983
977
976
977
979
980
978
975
975
978
980
982
980
976
978
979
981
979
978
972
972
972
971
973
969
969
972
972
976
976
976
976
978
978
978
977
976
974
972
974
973
973
973
972
970
971
972
973
971
970
971
973
975
976
972
972
973
974
973
972
972
970
969
970
973
972
971
972
973
975
976
976
975
974
976
978
981
981
981
978
981
985
987
987
987
989
994
999
1003
1005
1007
1013
1030
1051
1071
1088
1108
1126
1149
1168
1187
1203
1212
1201
1178
1144
1107
1066
1029
1005
989
982
979
982
988
988
988
986
985
982
981
977
977
977
978
978
977
974
976
976
978
976
974
971
973
976
977
978
976
974
974
976
976
976
975
974
976
978
979
979
977
976
980
985
988
988
988
983
986
989
993
992
989
985
987
990
992
994
993
991
991
994
997
998
997
995
996
998
1001
1000
998
997
996
999
1001
1004
1003
1000
1001
1002
1004
1004
1005
1003
1002
1004
1004
1004
1001
999
995
996
997
996
994
992
990
991
992
991
992
990
991
991
991
990
990
988
989
988
988
988
986
984
986
987
988
987
986
987
988
990
992
992
990
988
990
992
992
992
992
991
994
996
999
1002
1002
1004
1012
1025
1045
1068
1088
1107
1130
1153
1175
1192
1199
1193
1185
1170
1153
1122
1085
1052
1029
1020
1020
1015
1006
997
995
994
995
991
986
981
980
981
980
978
977
973
975
976
978
978
975
973
971
972
974
974
971
967
969
970
971
970
970
967
968
968
973
972
974
972
972
974
975
977
978
976
976
978
979
979
980
977
977
981
982
981
982
982
984
984
989
989
988
988
993
995
997
999
998
999
1002
1008
1008
1009
1010
1009
1011
1013
1016
1015
1014
1011
1013
1013
1014
1013
1011
1007
1007
1007
1007
1004
1001
997
996
995
997
995
993
990
985
984
984
983
980
977
975
975
977
976
976
975
975
977
977
976
976
974
978
979
983
983
983
981
983
983
983
984
982
981
982
983
984
984
984
983
986
991
994
1001
1010
1019
1040
1063
1083
1100
1117
1137
1160
1180
1192
1199
1199
1188
1166
1136
1099
1055
1017
997
992
991
990
984
980
978
976
976
975
973
969
967
968
968
970
967
967
964
964
964
964
965
962
961
962
963
965
966
963
962
962
964
965
966
966
965
969
971
972
973
971
971
974
975
976
978
976
974
973
972
972
968
967
967
969
969
972
970
970
970
970
972
976
977
978
977
979
982
983
984
983
982
983
985
985
982
981
981
980
980
979
982
981
980
979
980
981
981
979
974
973
975
976
974
973
972
973
972
972
973
971
967
969
969
970
969
967
964
966
967
965
964
963
960
962
960
961
960
959
958
960
960
962
960
958
959
959
961
963
962
962
964
965
966
970
969
970
967
967
968
970
968
965
964
965
969
970
968
967
965
967
969
970
972
971
970
970
972
975
974
973
969
968
968
972
973
970
965
967
966
969
970
970
965
967
966
969
970
968
965
965
967
967
969
968
966
967
967
968
971
969
966
968
969
968
969
967
964
965
965
967
967
966
964
961
962
965
964
962
960
963
963
966
967
969
972
977
981
987
996
1012
1028
1048
1074
1098
1125
1149
1168
1188
1207
1213
1199
1170
1131
1087
1042
1010
985
969
957
952
954
963
969
969
967
967
968
965
964
960
959
960
961
961
959
957
954
956
956
956
955
954
951
952
953
955
954
952
952
953
954
955
956
952
951
955
957
958
959
958
959
962
964
968
965
964
963
965
967
968
966
967
965
969
972
974
976
975
975
977
978
979
980
979
977
980
981
983
983
981
980
981
984
985
988
986
986
988
989
993
991
990
989
988
991
994
991
989
984
984
985
984
984
978
975
975
977
980
978
977
972
971
972
975
974
975
973
975
977
979
978
976
975
976
975
976
976
973
967
969
969
970
972
970
967
967
968
970
972
969
966
966
968
969
969
967
964
965
965
969
970
968
968
969
968
970
968
967
964
965
965
966
966
966
964
967
970
973
971
970
968
969
970
972
969
970
967
969
970
971
972
970
970
970
970
970
970
969
966
966
968
968
969
967
965
965
965
965
963
958
953
957
960
963
962
962
962
961
963
963
965
963
963
965
968
970
969
967
965
967
968
970
970
968
965
968
969
971
970
964
963
964
966
966
966
963
960
962
965
966
963
965
963
962
960
962
963
961
959
960
962
963
960
960
958
958
960
960
960
963
962
965
970
972
971
970
967
969
970
974
971
971
969
970
970
973
972
972
972
972
975
976
975
975
972
973
975
974
973
972
971
973
970
971
971
971
969
971
973
971
972
971
968
969
969
971
970
969
966
967
968
969
967
966
963
967
968
970
970
970
970
974
977
979
979
980
976
976
979
981
977
977
972
978
982
988
989
993
999
1013
1033
1054
1077
1098
1119
1142
1160
1176
1190
1188
1167
1134
1097
1057
1022
998
983
974
969
975
980
984
983
984
982
982
980
977
974
974
973
975
974
973
969
971
972
973
975
975
974
974
975
977
977
974
974
973
977
982
981
977
975
978
978
979
976
973
973
974
974
976
976
972
972
975
974
977
976
975
973
975
977
980
979
981
981
983
985
987
987
988
989
991
993
993
990
990
989
991
993
997
1000
1001
1001
1003
1007
1009
1009
1007
1005
1004
1004
1004
1000
996
993
993
992
992
987
986
983
983
984
984
981
981
978
981
982
983
981
977
976
980
980
980
983
981
980
982
983
983
983
982
982
983
985
988
988
986
985
987
988
990
988
990
989
993
996
1000
1006
1011
1021
1039
1064
1091
1114
1136
1156
1180
1200
1211
1210
1198
1173
1139
1101
1062
1026
1008
1001
999
994
995
992
992
988
985
985
983
982
978
974
973
975
976
976
971
970
971
971
971
970
968
965
965
968
969
971
971
970
973
974
976
974
975
973
973
975
979
978
978
976
976
978
981
980
980
979
980
982
986
985
983
982
983
985
988
989
988
990
995
995
1000
1001
999
999
999
1002
1005
1004
1000
1001
1002
1005
1006
1006
1005
1004
1003
1004
1005
1004
1001
998
996
995
994
992
987
985
984
986
986
984
983
981
980
982
983
982
983
979
979
982
982
983
985
980
981
984
985
984
981
980
979
980
980
977
975
972
974
976
977
975
974
972
973
974
974
973
970
970
973
973
975
974
973
971
972
973
975
976
974
972
973
973
973
973
970
968
969
971
972
970
969
967
971
972
976
978
977
976
977
978
979
979
978
976
977
980
982
978
978
976
978
979
981
981
980
978
979
983
985
985
982
984
983
985
988
991
989
991
996
998
1005
1013
1028
1047
1066
1087
1111
1135
1153
1165
1178
1185
1177
1153
1120
1082
1045
1014
997
986
980
976
977
982
985
982
976
971
968
967
968
966
962
960
961
962
966
968
967
965
964
966
969
969
966
962
967
968
970
969
968
966
968
969
971
971
967
969
967
970
975
975
974
973
974
975
977
977
975
974
977
979
982
982
979
977
978
977
978
978
974
973
976
978
980
978
978
977
980
984
985
987
986
983
988
990
991
992
991
989
990
991
993
991
988
986
988
988
987
987
983
978
978
982
983
982
979
977
978
978
980
980
978
976
979
979
978
978
974
972
973
972
973
972
969
969
969
971
971
971
970
968
970
972
973
972
971
970
970
972
972
973
974
972
972
970
972
971
972
973
974
974
978
978
978
977
977
978
981
979
977
975
975
976
974
975
974
972
973
972
971
970
967
967
966
967
967
967
964
964
966
965
970
969
966
964
964
966
968
966
964
962
964
966
967
965
965
964
969
973
974
973
972
970
971
972
972
970
967
967
967
968
967
970
969
967
970
972
971
973
971
972
971
972
975
974
972
972
971
973
973
972
970
967
967
968
969
967
967
966
967
969
970
969
969
968
969
969
968
968
967
966
968
969
971
975
975
970
970
970
969
970
970
967
970
971
973
971
969
971
970
970
974
973
971
969
971
975
975
976
973
973
973
974
974
974
971
970
971
971
976
974
971
972
973
976
977
975
975
974
974
977
979
977
979
981
983
989
992
993
1001
1016
1040
1062
1086
1112
1134
1154
1176
1200
1215
1213
1189
1148
1100
1059
1024
998
978
964
959
963
974
980
977
974
971
973
971
969
966
963
966
967
970
970
969
969
969
970
972
972
971
970
970
973
974
970
967
965
966
967
970
970
966
966
968
969
971
971
972
972
973
976
977
975
972
969
969
977
976
976
974
973
976
977
979
981
979
981
982
983
984
985
984
982
986
989
992
991
991
992
994
999
1000
999
1001
999
1002
1002
1001
1000
997
995
992
995
994
992
992
990
991
991
990
987
985
983
982
979
978
975
972
970
971
971
971
969
968
968
969
970
970
969
968
966
969
971
971
972
970
969
970
973
974
973
972
972
974
977
977
978
980
980
980
982
983
983
979
977
978
980
981
981
980
979
981
986
986
986
985
981
982
980
979
979
977
976
975
975
978
977
974
973
973
973
975
974
973
967
968
969
968
965
964
964
967
967
970
972
975
976
981
985
989
992
998
1008
1027
1047
1063
1078
1098
1121
1146
1159
1171
1181
1178
1162
1134
1101
1064
1028
1009
1002
998
994
992
991
988
982
978
975
974
972
970
966
965
966
962
962
960
957
959
958
960
960
960
958
961
964
964
963
963
962
965
966
969
970
971
970
972
974
976
977
977
980
982
986
985
986
984
981
984
988
991
990
989
988
989
991
994
992
991
989
992
995
995
995
991
991
992
993
995
993
992
988
990
990
992
991
986
985
986
984
983
981
979
974
977
979
980
979
977
974
976
975
975
973
971
970
970
971
973
970
966
963
963
966
968
967
965
964
962
965
965
964
961
959
959
961
962
959
958
955
957
958
960
959
956
957
957
961
962
960
957
955
957
959
959
958
955
954
953
957
958
960
959
961
967
971
975
976
976
973
976
977
977
976
975
972
976
974
977
973
973
971
971
973
973
972
969
968
967
966
968
966
965
962
964
964
965
963
961
958
959
961
961
959
958
958
957
961
963
961
961
960
963
964
966
964
964
962
964
964
964
963
963
961
964
966
966
968
970
970
974
977
979
978
977
973
974
978
980
981
981
981
984
988
990
995
1001
1016
1036
1056
1077
1099
1122
1139
1152
1163
1171
1162
1140
1110
1077
1040
1007
987
976
973
971
975
978
979
975
974
973
975
973
973
967
968
970
971
970
969
965
964
964
966
965
963
960
961
963
966
970
970
970
968
970
973
973
972
969
968
971
972
971
969
969
969
970
974
972
971
971
971
973
977
979
977
977
977
980
983
985
987
987
989
989
993
994
993
991
991
992
995
995
996
995
992
997
998
999
1000
996
996
997
995
993
990
987
983
986
986
985
983
982
982
982
984
983
981
978
978
981
980
980
980
976
974
976
977
977
978
975
974
975
980
981
982
979
978
980
982
983
980
979
977
978
980
978
978
977
974
973
975
975
974
971
971
971
973
973
973
972
971
968
970
970
970
969
967
968
970
970
970
969
965
966
965
968
967
968
973
977
981
984
984
983
984
984
987
987
987
985
985
986
986
987
984
983
983
982
982
981
982
979
979
980
981
981
979
975
974
975
976
976
974
974
971
972
973
971
969
969
969
970
972
972
973
972
974
977
984
988
991
992
997
1010
1027
1047
1066
1083
1106
1132
1154
1172
1189
1201
1202
1190
1164
1131
1087
1045
1007
985
974
967
965
969
975
986
991
992
989
987
982
982
983
981
980
975
975
978
976
978
975
972
968
971
970
970
969
969
967
966
969
972
971
969
972
974
974
976
976
974
973
976
976
977
976
975
975
977
979
980
981
981
982
983
987
986
987
985
984
984
985
986
988
987
986
988
990
990
988
988
988
988
991
991
991
990
991
992
994
995
996
997
999
1002
1005
1004
1003
1001
1002
1002
1002
1002
998
995
994
995
994
992
989
987
985
987
987
987
986
984
982
986
985
985
984
983
983
981
984
984
980
978
978
980
980
979
978
977
976
977
977
976
974
971
970
970
968
969
967
965
963
965
965
963
962
960
960
965
968
973
976
978
978
982
986
986
987
986
984
988
989
989
989
988
987
987
991
990
989
988
987
988
989
989
988
985
984
986
988
987
984
985
984
982
983
984
981
981
978
979
977
975
974
971
973
970
973
972
970
969
968
969
972
974
972
969
968
970
970
970
971
971
974
978
983
986
984
984
985
987
988
991
990
990
991
995
1000
1002
1006
1006
1009
1016
1026
1042
1061
1077
1097
1119
1142
1158
1172
1186
1201
1204
1188
1158
1124
1080
1043
1014
998
989
979
973
974
981
985
984
980
977
975
976
977
979
977
977
974
977
978
977
976
974
973
975
979
978
977
976
976
974
976
977
977
980
981
987
990
992
993
989
989
990
990
991
991
991
990
990
993
995
992
993
990
992
993
992
993
990
990
989
992
992
990
991
991
991
992
993
995
994
996
999
1001
1003
1002
1002
1001
1002
1007
1006
1006
1004
1004
1005
1009
1006
1003
1003
1001
1001
1002
1000
1000
999
997
999
1000
997
992
990
986
988
989
991
991
991
992
995
999
999
999
997
994
994
999
997
997
994
991
994
996
997
996
993
993
995
996
996
997
995
995
997
1001
1002
998
996
995
996
997
997
995
994
992
994
995
996
994
992
988
990
990
988
987
984
983
981
982
982
980
978
975
978
979
979
975
976
973
972
974
973
972
970
975
979
984
988
992
992
992
994
997
997
996
993
994
992
995
997
994
996
995
997
999
998
996
995
993
993
996
993
993
994
989
990
991
990
987
983
983
984
986
986
985
981
981
985
986
987
987
990
990
994
999
1011
1026
1042
1061
1084
1107
1133
1152
1168
1183
1196
1195
1183
1158
1122
1085
1050
1029
1018
1011
1006
1002
1004
1007
1007
1002
998
995
996
996
994
992
988
986
988
988
985
983
980
979
979
978
978
973
974
973
974
975
974
974
971
970
972
973
971
969
969
970
972
974
976
974
972
973
976
981
981
981
981
984
989
993
998
1000
997
999
1002
1005
1007
1004
1005
1003
1002
1005
1008
1007
1008
1007
1008
1011
1012
1010
1008
1009
1011
1012
1013
1010
1009
1007
1010
1011
1008
1007
1000
1001
998
1000
1000
999
996
995
993
995
995
993
990
988
988
987
989
989
989
985
987
989
988
986
988
985
986
986
989
992
991
993
996
997
997
997
994
993
993
991
991
990
988
989
991
994
994
993
991
992
991
991
989
987
986
985
988
988
985
985
984
984
986
988
988
986
985
982
986
986
985
987
984
983
983
982
981
979
979
977
980
981
980
976
975
973
975
975
974
974
975
976
978
981
982
982
981
982
985
987
988
987
987
987
989
989
990
988
986
987
989
992
990
988
986
986
988
989
988
984
983
981
985
987
986
985
984
984
988
989
988
987
984
983
985
990
989
988
986
985
986
988
990
987
986
985
987
987
986
985
984
983
982
983
985
989
992
999
1005
1012
1019
1030
1047
1067
1088
1107
1132
1153
1168
1183
1197
1203
1188
1156
1120
1081
1046
1018
999
988
980
978
982
987
990
992
987
983
983
982
981
980
976
976
974
976
976
977
975
976
977
974
974
974
971
970
972
974
975
973
971
969
971
975
975
973
973
972
975
975
977
977
977
979
983
987
989
990
994
993
993
994
995
993
992
992
993
996
996
995
993
994
996
1000
1001
1000
999
998
1000
1004
1002
1006
1004
1003
1007
1010
1009
1009
1008
1008
1011
1011
1010
1008
1003
1000
999
1000
999
996
995
992
991
991
991
988
986
985
987
990
992
990
990
988
989
995
995
991
990
988
990
992
989
985
984
984
985
985
985
982
980
981
983
985
982
980
979
977
979
980
980
977
975
974
978
977
978
975
974
973
976
978
979
983
980
982
982
986
987
988
986
985
987
992
992
994
993
993
994
996
994
991
993
990
990
990
991
988
984
984
984
985
986
983
981
981
980
980
981
979
978
976
978
981
981
978
978
977
980
981
983
982
981
980
983
985
987
986
984
984
985
988
986
982
979
977
980
980
982
984
986
992
1002
1008
1017
1034
1052
1074
1099
1123
1150
1169
1185
1200
1213
1216
1197
1163
1121
1076
1031
1003
988
977
972
979
989
993
992
986
984
980
980
978
977
976
974
974
976
977
979
978
977
976
978
982
979
976
975
976
978
979
975
974
968
968
971
969
969
970
967
969
971
973
975
976
978
981
985
987
987
987
989
989
990
991
993
994
993
996
1000
1001
1002
1002
1002
1002
1003
1004
1005
1003
1004
1005
1009
1010
1011
1013
1013
1014
1014
1015
1012
1009
1007
1002
1003
1000
999
996
992
990
988
988
987
983
982
978
979
978
979
977
974
973
973
973
972
972
971
975
982
987
987
986
986
984
985
987
988
986
985
985
984
986
987
986
984
982
983
985
984
983
981
978
981
983
982
979
980
983
985
987
986
985
982
980
981
983
981
980
976
975
974
978
977
973
970
969
970
969
971
970
971
975
983
988
990
991
989
989
990
992
992
992
990
988
991
991
991
991
989
986
986
986
987
986
982
983
980
982
981
979
979
978
977
980
979
975
972
972
973
977
977
977
976
970
972
973
971
968
965
965
970
976
980
982
983
985
987
988
988
987
985
986
988
989
990
987
985
984
985
986
986
986
982
981
984
986
985
981
979
978
980
983
980
981
978
977
979
979
978
978
977
976
977
978
977
979
977
979
983
988
992
995
1000
1003
1005
1011
1026
1042
1058
1077
1101
1129
1151
1171
1184
1191
1183
1160
1123
1080
1045
1020
1009
1006
1002
1003
1003
1002
1002
1000
996
992
990
989
989
990
988
986
984
980
982
982
981
978
976
976
978
979
979
977
975
976
979
978
979
978
977
977
981
979
980
979
978
977
978
979
979
980
979
978
981
981
980
979
981
980
984
990
995
997
997
998
999
1002
1004
1003
1000
1002
1001
1004
1005
1003
1002
1001
1004
1007
1008
1007
1005
1005
1005
1006
1005
1003
1001
998
997
998
997
996
992
991
992
994
990
987
985
984
985
985
984
985
981
980
984
988
987
987
984
985
986
987
987
986
986
985
989
991
991
991
988
991
992
993
992
991
989
987
988
987
987
987
984
983
982
983
983
981
980
978
978
980
981
979
977
975
976
977
975
975
973
973
974
975
973
972
970
971
973
973
975
975
975
972
974
973
973
971
970
972
974
978
980
981
981
978
979
982
981
983
979
977
975
975
975
977
975
976
977
977
979
979
973
974
975
975
976
975
975
973
973
976
977
976
977
979
984
987
991
1001
1017
1035
1057
1076
1097
1120
1139
1154
1169
1177
1172
1155
1123
1091
1053
1023
1003
994
987
985
988
992
993
991
987
983
982
982
980
979
977
977
979
981
983
980
976
975
974
975
972
970
967
965
967
969
970
966
965
965
967
969
967
965
964
961
961
964
965
963
963
963
967
968
970
969
966
969
970
973
975
973
972
971
977
978
979
979
979
979
982
987
988
989
989
990
994
998
999
1002
1001
1002
1004
1007
1007
1005
1001
998
998
998
996
991
987
986
985
986
984
980
975
975
973
974
972
969
965
962
965
965
964
962
960
961
961
962
961
959
957
956
959
960
960
960
958
959
961
963
964
964
964
965
966
966
962
963
961
958
961
960
962
960
961
962
967
970
972
972
970
970
971
974
975
974
973
974
975
975
976
972
972
970
972
972
970
968
964
965
966
967
966
966
962
963
965
965
966
965
963
964
967
971
971
971
969
967
966
969
970
969
965
963
966
970
971
970
969
968
969
972
973
970
969
969
969
968
968
967
964
964
966
967
965
964
964
961
965
969
971
969
966
966
965
966
967
967
964
964
964
967
966
967
965
969
972
978
980
987
987
998
1014
1035
1054
1076
1098
1121
1148
1168
1184
1196
1195
1179
1148
1111
1071
1032
1001
982
969
965
962
964
967
972
977
978
975
972
970
969
970
970
970
969
967
968
971
972
970
972
968
967
967
969
968
966
965
963
966
966
967
965
965
964
966
964
964
961
959
959
961
960
963
964
961
964
968
970
972
972
973
972
975
977
976
977
976
975
978
983
982
984
982
982
986
988
989
988
989
990
992
995
997
995
993
995
997
998
999
997
995
993
995
994
993
991
989
987
986
986
984
982
979
975
975
975
972
970
967
965
967
970
971
969
968
966
968
969
968
968
965
965
966
967
966
966
966
966
968
971
973
973
971
971
973
975
977
977
974
973
974
975
976
975
972
973
975
976
978
978
972
970
973
975
975
972
969
967
969
970
971
969
970
969
974
974
974
973
970
968
970
972
973
972
971
971
973
976
981
985
987
991
1003
1019
1037
1054
1066
1081
1103
1127
1142
1154
1160
1158
1147
1121
1089
1050
1018
997
988
986
982
979
978
977
978
976
975
972
968
967
968
969
967
967
966
966
969
970
967
966
964
962
963
966
965
963
963
962
965
969
969
966
966
967
970
970
972
969
971
971
975
978
978
977
975
974
976
976
977
975
975
976
976
981
980
981
981
983
985
988
988
988
986
988
987
990
991
991
990
991
992
996
994
993
993
994
995
995
994
992
990
988
991
991
990
986
984
980
979
980
976
974
971
971
974
974
974
972
971
969
972
973
973
974
970
971
972
973
973
972
970
972
973
976
976
973
970
971
973
974
975
973
973
973
973
975
974
972
973
970
974
974
973
969
968
965
967
970
970
972
973
972
973
974
976
975
972
972
973
974
973
974
970
968
971
972
971
971
970
969
971
973
972
970
968
968
971
972
972
970
971
971
972
974
973
974
973
971
973
975
973
972
970
971
973
974
973
970
967
965
966
966
965
963
963
962
965
966
966
967
967
968
970
972
972
973
974
973
975
976
976
976
975
980
986
989
992
996
1003
1019
1040
1057
1077
1096
1117
1135
1154
1168
1176
1175
1163
1140
1110
1077
1041
1012
998
990
986
984
981
980
977
973
971
970
968
966
960
961
964
964
962
960
960
959
963
964
965
965
962
965
967
971
971
971
971
974
974
975
975
975
972
970
972
974
973
974
973
972
974
977
976
977
975
975
976
979
978
976
973
974
975
976
977
977
974
972
973
975
975
975
970
971
973
973
973
971
970
971
972
976
980
979
980
979
982
985
988
988
989
988
991
995
994
990
989
987
989
990
990
986
981
981
983
984
982
981
978
976
979
980
979
977
974
973
975
976
975
973
972
970
970
971
970
968
965
964
966
967
966
962
965
962
965
967
966
965
964
965
967
968
969
966
967
966
968
968
967
965
960
961
960
960
957
957
959
961
967
969
970
972
971
971
974
973
973
972
971
969
969
972
970
968
965
966
969
970
967
966
965
966
966
968
970
968
968
967
969
972
972
972
972
972
975
979
980
980
982
984
988
992
994
999
1014
1029
1045
1060
1079
1099
1117
1132
1149
1162
1166
1155
1134
1108
1078
1045
1018
998
985
979
980
984
985
985
984
978
977
975
973
969
966
965
964
965
963
963
963
962
962
961
960
960
959
959
963
965
966
967
966
967
970
972
970
970
966
965
967
970
969
969
967
966
968
970
971
969
968
967
970
971
970
968
968
969
973
977
978
980
979
980
983
987
988
990
988
987
987
989
987
986
985
985
986
986
984
984
984
985
987
989
989
990
987
987
988
987
987
987
984
983
983
983
981
978
978
974
974
974
975
973
970
966
967
967
965
964
962
964
966
967
968
967
964
966
966
967
966
965
965
967
968
969
966
962
962
965
968
971
973
975
978
979
980
980
981
979
979
978
979
981
978
975
971
975
977
979
977
975
974
972
975
977
975
975
971
971
972
974
973
972
974
975
978
984
991
997
1007
1021
1043
1064
1082
1097
1115
1138
1156
1167
1172
1169
1154
1128
1095
1059
1020
991
977
972
971
972
974
977
977
974
972
970
967
965
963
965
966
968
968
970
970
970
973
973
970
971
969
968
968
970
967
967
964
964
965
967
968
965
964
966
968
968
967
966
964
962
965
968
968
968
967
967
968
971
972
970
969
970
971
973
975
973
974
975
978
981
982
983
984
984
986
988
987
989
988
988
991
992
992
991
989
987
987
989
985
984
981
982
986
986
985
979
979
977
979
982
980
980
977
976
976
976
974
972
970
969
970
971
971
969
968
966
970
973
974
973
971
972
975
977
976
974
971
972
973
973
973
972
971
971
975
976
975
976
974
978
984
992
1001
1015
1032
1055
1078
1100
1120
1140
1162
1181
1200
1207
1201
1181
1155
1120
1085
1051
1021
1005
1001
1002
997
991
984
981
979
976
973
972
970
969
965
962
964
964
964
963
961
959
960
962
961
960
957
957
958
961
960
959
956
956
954
956
952
951
950
947
948
949
951
951
950
951
954
956
957
954
953
955
955
959
957
958
957
959
961
962
964
961
963
965
967
969
971
970
971
972
975
976
979
981
983
984
986
989
986
986
985
985
987
987
986
983
981
980
979
977
976
971
970
965
966
965
962
960
959
960
962
962
960
959
957
957
957
959
957
958
957
959
960
963
963
963
965
966
967
971
970
971
970
970
970
970
971
968
966
964
965
967
967
967
967
968
971
972
969
966
966
963
965
964
964
962
959
960
960
962
962
959
958
957
958
961
963
960
957
957
958
958
958
955
954
953
953
958
960
957
957
957
959
963
965
963
965
966
968
972
972
970
968
967
969
971
971
969
967
968
968
968
967
966
964
963
962
963
963
960
958
955
955
958
954
952
954
953
958
960
958
955
954
954
953
956
954
953
956
955
956
960
957
957
959
961
964
965
965
965
965
966
966
970
969
970
971
972
973
975
974
974
972
973
974
977
976
973
972
972
971
972
973
972
970
971
972
974
974
977
980
984
992
996
1008
1023
1042
1060
1082
1107
1128
1143
1154
1167
1169
1155
1128
1093
1053
1021
1001
991
985
982
981
981
984
984
981
976
975
972
971
971
970
967
966
966
967
968
971
969
970
970
972
973
972
967
967
965
966
968
966
965
962
963
965
970
970
969
968
967
969
971
970
970
969
968
970
972
970
972
971
971
972
976
978
976
975
975
976
979
980
979
978
979
982
984
984
984
983
983
984
987
987
987
988
992
996
998
998
998
998
1001
1001
1004
1000
1003
1001
1001
1001
1002
1000
999
997
998
999
998
995
991
988
985
987
988
986
984
981
981
982
982
982
980
979
977
978
983
982
978
977
976
977
980
981
979
977
974
975
976
977
976
974
978
977
979
979
977
975
977
979
980
981
981
981
980
983
985
985
981
980
981
982
984
982
980
978
976
978
980
978
976
974
974
975
975
975
972
970
969
971
973
973
970
966
967
970
971
970
968
966
965
967
969
968
967
965
966
969
972
973
970
970
973
975
978
978
974
974
972
976
976
973
974
974
973
975
975
974
973
973
973
973
973
973
972
969
968
970
972
970
968
967
967
969
970
970
969
968
970
973
978
982
986
989
998
1018
1041
1062
1081
1101
1124
1147
1164
1176
1184
1171
1139
1103
1064
1021
991
973
964
964
967
970
974
974
970
971
972
971
967
967
966
968
970
972
969
966
964
964
967
965
965
964
964
965
965
965
963
962
961
963
963
964
962
960
960
962
963
964
965
966
966
967
970
970
971
967
969
968
973
974
973
970
972
974
975
977
975
974
976
980
982
984
983
982
980
987
991
991
992
991
992
997
998
999
997
996
993
996
996
994
991
990
986
986
986
982
980
975
974
976
975
974
972
969
970
970
968
968
965
962
963
964
967
963
961
959
960
963
967
967
965
966
966
969
970
972
972
974
975
977
981
981
979
979
979
982
981
979
976
975
974
976
976
976
976
974
973
973
972
971
969
970
967
969
969
968
966
966
965
966
968
967
964
965
966
966
966
965
966
965
965
966
966
965
963
963
965
966
969
967
967
969
971
973
972
974
975
976
975
978
979
981
980
975
976
977
980
979
976
975
976
977
978
974
974
974
973
976
975
973
973
969
970
970
971
969
967
967
967
969
969
969
967
966
967
969
972
972
970
971
971
974
977
979
981
985
988
992
1000
1008
1025
1047
1067
1089
1112
1136
1152
1170
1183
1198
1202
1185
1154
1117
1069
1027
998
982
973
971
977
982
983
979
973
970
967
967
966
965
963
962
960
960
963
963
961
960
961
962
964
963
965
964
964
966
970
971
971
970
973
975
976
976
977
977
977
978
982
984
985
985
988
989
989
989
990
986
987
989
992
989
987
985
985
987
988
988
986
984
984
985
987
987
985
983
982
986
989
988
987
987
986
986
987
983
982
980
982
982
982
981
980
977
977
979
982
981
981
979
979
981
983
984
984
983
984
984
986
985
983
981
981
981
983
982
981
981
979
980
983
983
982
978
977
978
980
980
977
974
973
977
978
976
974
972
972
973
974
972
973
972
974
975
979
976
977
976
976
980
983
983
984
981
981
982
984
982
981
981
980
981
985
983
981
979
979
980
981
979
977
977
976
977
978
976
972
972
971
973
975
973
970
972
970
971
972
971
969
967
967
968
969
968
969
967
969
971
971
972
970
967
970
970
972
976
980
978
978
980
981
981
981
978
976
979
980
979
979
979
980
979
983
985
985
986
989
995
999
1006
1015
1034
1054
1073
1092
1113
1132
1145
1155
1166
1167
1154
1127
1091
1052
1018
998
989
984
979
976
978
982
981
981
977
974
976
976
977
980
978
977
978
982
983
984
983
982
982
986
985
986
984
984
985
987
986
984
981
980
979
980
979
980
977
976
977
980
981
982
981
979
981
982
981
980
979
979
979
982
982
979
979
980
982
984
984
983
982
982
985
989
988
988
986
986
991
993
993
993
993
992
995
998
999
997
995
994
998
997
995
996
996
995
995
998
999
999
994
991
991
991
991
988
983
983
983
983
982
981
979
978
978
977
975
973
973
972
976
977
975
972
971
967
969
972
971
970
970
970
971
975
974
973
972
972
974
978
977
978
979
978
982
986
985
986
987
986
988
990
988
987
985
984
986
988
987
985
983
982
984
986
983
981
978
979
980
982
980
979
977
977
977
976
975
974
974
972
972
973
971
968
968
967
968
969
967
967
965
965
966
968
965
964
962
963
966
968
968
968
965
965
969
972
974
973
974
976
977
979
982
982
984
983
982
983
979
980
977
976
978
980
981
981
978
977
977
979
977
979
976
974
976
978
977
975
973
972
976
976
975
974
969
970
973
971
971
971
968
969
969
971
972
970
968
968
971
973
973
973
971
974
976
979
981
982
979
979
979
982
982
980
980
979
981
985
985
983
984
985
988
992
997
1000
1001
1004
1010
1026
1043
1063
1080
1101
1128
1150
1164
1176
1181
1182
1164
1136
1097
1053
1016
994
982
979
975
975
978
981
985
985
981
979
975
972
973
973
973
970
969
970
973
976
976
974
972
974
976
976
976
976
976
976
977
980
978
979
976
977
980
982
980
978
976
978
982
984
983
982
980
981
985
988
988
986
985
985
986
988
988
988
987
988
991
992
991
991
990
989
993
993
993
993
989
989
993
994
994
994
995
998
1001
1004
1005
1004
1004
1006
1009
1012
1011
1008
1008
1006
1007
1007
1003
1001
998
996
996
995
992
990
987
986
986
988
983
984
980
979
979
981
980
979
975
974
976
978
978
976
974
975
976
976
975
977
976
974
