1045
1040
1038
1043
1049
1047
1042
1041
1047
1045
1041
1034
1034
1034
1036
1032
1031
1028
1025
1028
1029
1032
1031
1027
1019
1009
1011
1012
1013
1014
1011
1008
1008
1015
1017
1016
1006
997
993
997
1003
1006
1000
995
1000
1006
1003
998
992
992
994
994
998
993
992
989
987
988
991
993
991
983
984
985
988
983
984
981
982
984
983
982
981
978
980
980
976
973
974
977
982
982
983
983
983
978
975
975
975
979
978
970
967
971
978
978
970
970
969
973
978
977
974
966
966
972
978
977
970
966
968
976
985
985
978
969
966
971
974
977
976
966
961
967
974
979
974
969
970
973
978
979
971
970
965
966
975
975
972
969
971
973
978
977
978
977
973
975
975
977
973
962
965
970
972
973
967
967
971
974
976
972
965
962
968
974
977
978
975
973
970
966
965
964
967
971
975
977
969
963
963
967
973
975
977
972
968
961
965
970
979
982
988
982
974
967
965
970
977
982
975
965
960
967
977
977
974
976
974
973
974
972
969
967
969
969
968
971
971
969
970
969
971
973
979
986
1000
1007
1007
1004
1007
1020
1031
1030
1026
1020
1020
1026
1029
1024
1018
1013
1012
1012
1014
1005
996
988
985
986
987
984
973
965
956
954
961
962
958
955
960
963
966
965
968
966
972
987
1010
1047
1105
1168
1234
1278
1300
1311
1311
1292
1260
1211
1138
1055
970
907
891
913
937
942
941
940
940
944
949
949
946
946
947
949
950
949
946
944
945
948
952
952
948
947
952
954
952
947
946
945
950
949
948
948
953
955
956
953
950
951
953
956
958
956
954
949
951
958
961
967
972
975
974
971
967
967
972
975
982
984
986
987
994
997
999
996
1000
1003
1005
1010
1013
1015
1019
1025
1032
1036
1040
1044
1052
1059
1065
1071
1077
1083
1088
1092
1101
1107
1111
1111
1113
1119
1126
1133
1136
1136
1132
1133
1137
1138
1130
1127
1127
1127
1129
1125
1120
1111
1106
1101
1100
1097
1090
1078
1068
1062
1056
1046
1035
1033
1030
1027
1026
1024
1023
1018
1014
1012
1016
1009
1004
996
1001
1002
1001
1001
998
991
986
987
985
985
985
985
986
986
990
989
984
980
981
986
987
986
979
972
973
979
985
986
985
985
985
988
990
991
987
986
985
995
1001
994
993
988
989
995
997
993
988
984
985
989
993
995
992
986
988
989
990
991
990
987
983
982
985
983
981
982
984
983
985
983
979
974
974
977
979
977
972
964
962
966
966
972
971
967
968
969
970
966
965
963
961
962
965
963
966
965
962
961
962
959
959
956
954
953
958
959
958
958
957
963
965
962
963
961
968
976
982
984
987
988
995
1005
1011
1019
1022
1017
1014
1015
1023
1021
1019
1013
1010
1009
1002
994
988
982
977
974
970
962
952
949
948
949
948
948
953
948
945
946
954
957
958
956
952
955
959
964
975
1007
1063
1137
1218
1277
1311
1321
1315
1297
1251
1170
1061
953
873
853
877
909
921
916
917
926
934
934
932
931
930
934
935
933
930
932
934
937
940
946
944
938
938
938
941
937
942
940
940
939
940
943
945
941
940
941
949
954
950
950
946
954
962
962
961
956
954
951
956
960
962
963
963
972
977
980
981
981
982
986
992
993
996
1002
1006
1015
1018
1019
1023
1023
1028
1031
1040
1048
1057
1059
1063
1075
1086
1098
1101
1106
1115
1122
1124
1126
1131
1132
1136
1138
1143
1142
1139
1132
1125
1125
1122
1116
1106
1099
1093
1086
1082
1074
1064
1059
1052
1051
1047
1039
1026
1019
1017
1012
1009
1008
1002
999
994
992
989
984
979
976
973
971
970
966
964
965
965
965
964
962
962
957
954
951
947
944
941
942
946
944
948
946
943
941
944
949
952
953
950
951
947
944
943
944
947
951
951
952
956
954
954
952
950
952
957
961
960
958
955
958
962
957
954
948
955
960
965
967
962
957
954
952
956
958
953
951
954
956
959
961
959
952
950
946
952
954
950
946
946
947
951
951
951
948
948
945
946
946
947
947
952
954
954
949
942
940
944
945
947
948
949
946
945
946
947
945
941
943
943
944
943
945
943
943
941
943
948
948
946
941
940
945
944
943
943
941
945
941
941
942
942
941
945
948
949
946
944
941
941
941
942
943
945
946
949
950
954
956
955
953
952
955
958
966
970
971
977
985
995
1002
1010
1013
1016
1016
1016
1012
1005
998
1000
1004
1001
994
984
978
970
963
956
950
951
948
946
948
952
952
949
947
951
955
962
960
958
954
952
956
968
987
1013
1059
1129
1203
1269
1312
1328
1325
1299
1270
1226
1147
1044
938
863
848
877
909
912
906
910
921
933
937
937
931
930
928
929
938
946
945
942
940
936
936
938
938
941
946
945
946
947
947
944
940
945
951
946
942
939
943
953
957
954
959
953
957
959
965
965
962
961
959
960
960
960
965
970
977
984
986
988
987
987
988
992
995
999
1004
1010
1020
1026
1031
1038
1045
1050
1052
1057
1059
1062
1064
1074
1084
1096
1105
1109
1110
1119
1126
1134
1132
1130
1126
1130
1136
1141
1142
1142
1138
1131
1125
1123
1121
1118
1107
1101
1095
1090
1080
1066
1059
1064
1059
1051
1037
1028
1026
1027
1029
1026
1019
1013
1011
1012
1003
1000
1008
1008
1009
1008
1002
991
984
980
980
980
979
979
974
971
963
968
977
984
981
971
964
965
966
973
975
975
970
972
978
981
982
983
986
989
1000
1005
1008
1006
994
989
991
1003
1011
1013
1008
1003
998
996
996
990
990
997
1005
1006
1005
1002
1001
1000
1000
994
991
994
996
1002
1006
1006
1001
998
992
987
984
984
995
997
992
980
975
975
980
982
978
980
980
991
995
997
987
977
978
981
983
977
972
968
966
960
959
961
966
971
980
980
974
968
960
963
971
981
981
971
960
964
969
974
971
973
974
977
976
977
977
982
976
965
961
967
978
979
974
976
988
1001
1004
1002
1002
1009
1024
1036
1036
1031
1025
1032
1035
1036
1033
1029
1021
1009
993
981
976
981
978
973
971
977
977
971
961
961
969
976
974
965
956
956
967
981
982
963
944
941
959
990
1035
1094
1170
1247
1304
1332
1342
1336
1306
1265
1195
1100
994
904
862
878
913
934
937
934
932
931
938
944
949
952
948
946
944
946
949
949
942
939
942
948
949
941
938
943
953
960
953
951
947
947
951
954
953
952
949
950
954
959
965
966
966
960
955
958
968
977
975
963
961
965
967
968
965
965
977
983
985
984
984
983
990
994
996
1000
1006
1014
1020
1023
1026
1028
1031
1037
1042
1050
1059
1064
1072
1080
1086
1091
1091
1096
1103
1113
1118
1123
1125
1130
1131
1131
1129
1133
1133
1132
1130
1128
1128
1125
1121
1112
1106
1103
1101
1098
1090
1080
1069
1060
1054
1047
1042
1036
1033
1025
1026
1026
1024
1018
1013
1003
995
997
1000
998
989
985
982
986
988
983
977
974
972
975
977
972
967
962
966
968
973
972
965
957
964
969
967
962
960
959
964
968
970
966
967
969
970
971
974
970
969
969
972
978
981
980
975
970
975
982
982
980
982
984
994
1007
1015
1022
1020
1022
1024
1032
1039
1047
1057
1080
1114
1155
1208
1253
1276
1290
1303
1312
1312
1302
1269
1205
1114
1007
916
860
835
833
836
834
823
810
797
796
799
801
807
806
814
828
843
853
858
867
875
880
887
897
911
921
923
928
931
934
939
940
937
937
936
939
944
945
939
940
946
951
951
946
947
949
952
954
956
951
947
946
944
944
945
946
942
946
951
955
954
951
949
949
955
959
964
960
958
960
965
973
976
975
978
984
993
1004
1009
1010
1015
1019
1027
1040
1048
1059
1062
1064
1077
1086
1096
1097
1098
1104
1112
1114
1118
1120
1123
1125
1127
1131
1128
1128
1125
1124
1121
1120
1111
1106
1100
1100
1101
1095
1082
1073
1066
1068
1065
1064
1055
1048
1043
1039
1040
1036
1033
1030
1029
1025
1025
1022
1018
1012
1005
999
1003
1008
1010
1007
1000
999
1000
999
996
991
994
997
1001
1003
1009
1008
1012
1011
1014
1019
1032
1043
1052
1070
1093
1121
1145
1167
1189
1217
1243
1266
1278
1289
1298
1294
1275
1250
1226
1208
1200
1194
1198
1211
1221
1223
1212
1193
1164
1132
1098
1060
1028
1000
975
955
946
943
939
929
919
908
903
902
900
896
891
883
873
865
861
861
866
871
873
870
863
858
858
857
861
865
866
870
870
877
878
875
873
868
871
877
879
878
872
870
866
865
861
861
855
851
855
856
854
854
849
846
848
845
846
844
840
837
835
839
837
834
830
828
832
834
838
839
837
837
840
844
848
844
843
844
847
856
859
861
866
874
882
892
892
892
893
902
914
924
928
930
931
938
942
952
953
952
947
949
955
957
957
955
959
960
965
970
970
964
960
964
967
975
980
976
971
969
973
977
974
968
962
963
971
982
983
974
966
966
976
978
977
972
967
967
975
982
981
982
975
968
968
969
973
974
973
975
981
981
976
968
964
963
967
975
981
981
976
970
970
967
970
969
966
967
974
978
977
973
966
962
964
967
969
970
970
967
964
966
960
962
959
962
966
965
960
958
956
953
957
958
958
956
950
950
946
952
955
959
958
957
955
954
952
952
955
955
952
950
955
958
955
955
951
949
949
949
947
948
954
958
957
952
950
950
955
957
956
953
948
949
950
956
960
957
952
946
948
952
952
950
951
954
960
964
964
960
958
950
951
953
957
956
949
949
947
947
950
956
957
953
950
947
946
943
945
953
956
957
953
953
951
951
954
958
957
957
955
954
954
957
964
957
947
943
948
958
960
952
949
950
951
957
957
954
955
957
957
955
953
954
959
962
962
961
957
953
952
949
948
950
953
953
951
952
954
956
957
956
957
959
956
957
958
955
953
951
954
960
963
964
958
952
952
954
959
958
959
956
957
957
956
954
954
958
961
964
961
959
957
961
966
969
967
964
962
962
961
959
961
959
954
952
951
955
957
956
954
956
960
967
965
964
961
961
963
969
965
958
958
960
961
968
968
967
964
956
954
962
966
968
966
968
966
963
963
967
962
959
962
967
969
966
965
965
971
976
979
976
976
981
988
997
999
997
998
1002
1012
1025
1034
1036
1033
1029
1029
1031
1033
1030
1026
1025
1023
1022
1016
1003
993
992
988
985
986
983
979
973
971
973
974
970
973
973
977
980
978
978
976
985
1002
1024
1052
1099
1159
1235
1292
1324
1324
1307
1273
1238
1188
1111
1018
927
867
863
892
919
929
932
936
944
955
965
969
964
956
955
955
960
964
965
964
962
965
970
971
972
969
972
972
974
974
971
967
969
969
973
973
972
968
971
976
976
970
970
971
971
975
983
983
986
984
985
987
991
992
989
989
986
990
995
1000
1002
1002
1001
1001
1007
1010
1012
1013
1015
1018
1023
1026
1029
1027
1030
1034
1039
1043
1047
1050
1053
1061
1068
1071
1073
1073
1078
1081
1088
1091
1091
1092
1097
1104
1108
1108
1107
1108
1113
1118
1121
1121
1119
1112
1108
1106
1109
1106
1103
1095
1092
1092
1088
1083
1078
1079
1076
1076
1074
1073
1066
1062
1061
1059
1055
1048
1038
1035
1034
1035
1036
1036
1036
1030
1028
1028
1027
1028
1025
1024
1026
1027
1033
1032
1027
1022
1020
1025
1031
1028
1029
1034
1038
1035
1034
1027
1029
1027
1028
1033
1040
1037
1039
1044
1047
1048
1044
1042
1039
1040
1039
1043
1048
1055
1056
1055
1060
1072
1081
1086
1086
1081
1087
1100
1112
1106
1092
1068
1033
990
948
910
872
836
798
767
744
728
731
742
758
784
814
839
868
900
934
965
986
993
994
981
975
969
965
959
958
955
958
958
957
954
952
951
944
942
940
941
949
950
950
948
956
955
957
958
961
963
966
968
970
972
973
975
975
977
978
975
974
978
983
988
991
992
994
1004
1010
1013
1011
1013
1014
1018
1025
1032
1042
1049
1053
1057
1063
1068
1073
1079
1086
1103
1119
1124
1125
1129
1136
1150
1160
1162
1162
1164
1175
1183
1191
1191
1184
1178
1179
1190
1196
1193
1185
1180
1177
1178
1176
1166
1162
1156
1155
1154
1151
1142
1133
1122
1115
1111
1109
1104
1099
1089
1080
1071
1065
1061
1053
1047
1044
1041
1039
1034
1031
1028
1026
1025
1025
1022
1020
1018
1015
1014
1014
1013
1010
1008
1010
1014
1017
1016
1013
1009
1007
1008
1009
1006
1004
1002
1003
1000
1004
1006
1003
994
991
988
992
989
982
983
982
977
981
979
975
972
967
966
967
966
964
963
961
962
962
961
956
954
954
955
955
954
951
948
945
943
946
952
950
945
946
946
945
942
939
936
937
940
945
943
937
932
933
937
940
940
932
933
931
927
929
929
934
933
933
933
932
932
933
925
923
925
932
931
931
924
923
925
928
933
933
930
926
930
934
932
925
918
915
918
927
928
926
927
930
931
930
924
923
923
925
932
935
932
924
924
924
928
928
925
929
931
928
928
932
930
926
927
926
925
927
925
928
925
927
932
937
938
935
926
925
929
933
930
931
930
933
935
935
935
933
928
930
930
932
932
934
935
931
928
933
936
936
931
928
933
937
936
932
935
934
934
932
930
928
929
930
935
942
945
943
937
936
940
947
945
941
931
929
931
933
933
936
937
938
940
939
946
942
935
934
937
941
943
945
944
946
944
944
945
946
945
943
946
943
942
944
945
947
953
956
955
952
948
951
958
973
979
982
983
992
1001
1011
1011
1015
1016
1020
1021
1022
1019
1020
1018
1015
1011
999
986
976
973
973
974
968
961
954
952
948
948
948
948
945
941
944
949
957
957
955
951
955
967
995
1032
1089
1159
1227
1284
1313
1319
1313
1289
1243
1176
1080
972
878
844
868
908
929
927
919
920
924
934
938
934
930
931
936
939
936
929
928
927
934
937
940
937
933
929
929
933
937
938
935
932
932
935
939
944
942
943
937
937
940
937
939
942
944
942
947
954
948
949
946
952
953
954
951
955
964
970
973
969
966
968
971
979
981
983
981
986
992
1002
1010
1015
1016
1013
1015
1019
1025
1026
1032
1035
1044
1053
1061
1066
1069
1070
1074
1080
1089
1097
1097
1097
1097
1100
1107
1103
1099
1096
1094
1097
1092
1088
1080
1074
1071
1070
1069
1065
1060
1055
1051
1047
1045
1039
1033
1029
1027
1019
1015
1010
1005
1002
1002
997
990
985
983
982
981
983
982
975
971
968
964
969
968
969
971
970
972
969
969
969
971
968
967
969
970
971
975
970
969
967
970
972
974
968
967
968
975
981
977
969
965
974
987
987
980
974
974
974
976
973
971
970
971
972
975
977
973
965
958
953
958
960
961
955
956
962
959
958
952
949
948
949
950
949
951
949
944
941
938
942
942
939
937
940
945
948
944
938
931
927
938
937
935
931
929
931
936
936
932
930
929
933
939
936
934
932
935
940
950
955
962
965
974
979
990
995
1000
998
1001
1004
1006
1006
1002
996
991
988
981
971
961
951
943
937
937
936
933
926
920
920
920
918
916
917
918
922
927
928
926
926
927
925
936
952
985
1041
1124
1214
1279
1308
1309
1291
1253
1200
1108
991
879
812
820
860
893
900
899
898
900
909
913
913
905
906
904
906
911
917
917
913
907
908
918
916
916
913
917
917
920
916
915
907
910
915
925
924
919
921
922
924
929
930
928
925
928
936
944
947
943
938
937
938
947
954
958
956
953
956
963
968
973
974
975
979
984
995
1000
999
1001
1008
1018
1020
1022
1025
1032
1043
1051
1055
1065
1068
1074
1079
1086
1095
1099
1097
1101
1104
1105
1103
1101
1101
1101
1104
1099
1088
1076
1066
1063
1066
1068
1060
1053
1046
1037
1032
1027
1020
1014
1007
1003
1001
997
994
990
985
981
982
983
980
975
969
968
971
973
969
961
955
949
951
955
952
956
953
953
952
954
959
958
954
954
951
953
956
954
955
963
965
964
962
959
959
964
966
968
968
969
967
967
969
971
971
972
973
971
971
971
970
965
966
966
967
970
966
970
967
965
966
966
966
964
961
959
962
963
964
960
957
956
956
960
960
957
950
947
951
954
954
956
953
953
950
952
950
949
946
944
948
953
955
950
946
951
958
963
967
967
968
972
980
981
986
992
1001
1011
1019
1025
1022
1020
1019
1022
1020
1023
1023
1017
1002
991
987
983
973
966
951
947
945
944
943
943
938
941
941
942
940
935
939
941
940
943
941
942
942
945
957
978
1018
1078
1154
1234
1290
1319
1319
1306
1272
1214
1125
1012
899
830
830
871
907
918
915
915
919
923
930
934
934
929
926
926
928
930
932
933
931
930
932
931
932
930
926
924
926
936
937
937
933
934
936
939
940
938
931
930
935
940
946
946
948
947
946
949
948
948
947
952
957
962
965
964
964
963
970
974
975
973
973
976
985
994
996
997
997
996
1003
1015
1018
1020
1023
1029
1037
1046
1048
1055
1057
1063
1070
1079
1082
1089
1090
1090
1096
1103
1103
1103
1098
1100
1099
1102
1097
1093
1091
1087
1078
1074
1066
1058
1055
1050
1044
1041
1031
1025
1022
1017
1016
1016
1009
1005
995
994
992
990
989
985
978
972
974
976
974
970
967
962
966
966
964
961
952
950
953
952
953
950
951
953
953
957
955
955
956
957
959
959
957
955
956
956
958
959
961
958
956
959
963
964
965
965
962
963
966
967
966
963
961
960
962
966
967
969
962
958
958
958
958
958
956
955
957
960
956
954
951
946
948
954
953
953
951
948
948
953
952
950
946
947
944
945
944
943
943
944
950
948
944
938
939
937
939
942
942
937
938
936
934
939
940
938
939
939
941
946
945
942
940
942
949
956
960
962
964
967
971
981
984
993
1000
1008
1007
1009
1010
1010
1008
1007
1006
1005
1001
991
977
970
965
961
955
947
938
933
933
937
936
937
935
937
939
943
943
941
940
941
946
952
958
972
993
1032
1095
1174
1245
1294
1312
1313
1300
1272
1218
1123
1011
902
838
836
874
898
905
905
909
918
927
928
927
923
923
927
930
933
933
930
931
931
932
931
933
933
933
936
936
937
935
932
931
936
933
932
933
938
939
942
945
943
941
941
944
948
945
946
947
947
955
959
959
958
954
953
955
960
962
966
963
968
971
974
976
974
975
977
985
994
997
1000
1000
1005
1011
1019
1024
1027
1035
1039
1045
1047
1052
1055
1062
1067
1078
1085
1092
1091
1089
1092
1097
1105
1108
1106
1103
1106
1107
1106
1107
1101
1096
1094
1094
1093
1087
1082
1074
1065
1058
1055
1055
1045
1035
1029
1026
1026
1023
1018
1011
1005
1004
1005
1001
994
991
987
986
989
986
983
979
978
974
973
968
964
965
968
969
968
967
964
963
963
967
969
969
965
962
962
969
973
971
971
973
975
980
985
984
978
980
984
990
990
988
988
989
993
991
992
993
993
993
996
996
993
990
982
980
982
987
989
992
994
993
986
986
985
982
982
982
979
980
980
975
973
970
971
976
976
976
972
970
967
967
969
970
965
962
958
964
970
968
966
962
961
963
964
965
963
962
961
965
973
977
977
981
990
995
989
982
983
991
998
1006
1018
1021
1023
1020
1017
1021
1025
1024
1021
1014
1007
1001
995
993
985
970
951
949
958
960
951
939
936
941
946
945
944
942
942
949
952
951
948
945
949
958
970
981
1005
1047
1117
1189
1253
1298
1317
1321
1310
1288
1248
1172
1072
967
880
843
862
893
912
908
903
906
919
929
925
917
916
921
923
922
919
918
916
920
924
925
923
916
918
920
927
926
921
921
926
929
931
926
926
928
931
934
931
930
925
930
932
935
939
938
936
934
939
944
945
942
937
934
937
945
949
952
956
957
958
964
970
972
968
965
965
969
978
978
974
977
981
989
999
1004
1008
1016
1017
1020
1028
1038
1044
1051
1059
1066
1071
1073
1073
1070
1073
1082
1093
1095
1096
1092
1089
1093
1096
1100
1099
1094
1088
1081
1080
1072
1063
1053
1046
1046
1046
1045
1041
1034
1024
1018
1013
1009
1003
998
998
995
995
991
986
984
983
979
973
966
956
955
955
954
958
958
955
947
947
950
953
955
953
949
946
941
938
936
940
937
935
935
939
940
939
939
941
944
945
942
941
942
942
942
947
948
949
950
953
952
957
955
956
954
954
959
965
960
956
949
951
956
963
966
962
959
956
956
963
961
956
950
945
944
951
951
955
947
944
941
941
939
939
935
938
941
947
942
937
934
935
937
936
933
927
924
929
930
931
934
927
920
922
928
934
930
929
927
925
926
927
925
922
921
921
924
929
927
925
922
924
926
927
922
923
923
925
931
936
940
938
941
946
949
958
960
961
963
967
973
977
976
972
968
972
977
982
982
978
973
967
961
953
947
938
933
928
924
924
922
920
919
919
919
920
923
920
919
920
922
925
928
925
929
931
949
971
1003
1052
1110
1183
1241
1272
1272
1254
1220
1174
1119
1039
945
860
811
813
847
875
886
886
885
894
902
913
916
915
913
915
914
918
918
914
914
914
917
920
918
917
915
918
920
925
923
923
924
924
926
930
928
926
924
924
930
933
935
934
932
935
937
941
943
942
936
940
940
949
950
948
945
948
949
956
956
957
959
962
964
971
971
976
979
979
984
991
991
993
995
1000
1005
1020
1030
1030
1029
1035
1042
1051
1056
1058
1062
1069
1078
1086
1089
1090
1094
1097
1101
1108
1106
1105
1103
1103
1107
1107
1107
1103
1095
1090
1090
1090
1084
1075
1067
1062
1057
1053
1045
1038
1031
1025
1021
1021
1016
1008
1004
1001
1000
997
994
992
988
986
985
987
983
976
973
971
974
976
974
969
968
964
961
964
962
961
959
959
960
963
960
958
955
954
959
962
963
957
959
960
964
968
967
966
962
964
968
970
970
969
968
969
974
978
980
977
978
979
980
983
987
987
989
994
1002
1010
1015
1023
1031
1036
1047
1060
1079
1095
1116
1140
1161
1184
1193
1195
1190
1177
1165
1147
1120
1075
1012
929
849
790
766
768
785
800
815
821
814
803
791
784
790
800
805
809
812
817
827
839
850
853
859
870
881
895
901
904
905
912
921
934
937
940
942
946
952
955
955
955
955
956
957
966
968
969
966
967
968
971
972
971
972
975
979
980
983
983
979
980
988
991
991
992
989
989
994
997
1002
1002
1006
1010
1017
1026
1028
1030
1033
1041
1051
1061
1067
1073
1078
1085
1096
1107
1112
1117
1120
1127
1135
1146
1150
1155
1152
1157
1160
1164
1163
1163
1160
1158
1158
1159
1156
1151
1145
1140
1136
1133
1122
1119
1111
1101
1101
1098
1092
1082
1074
1068
1063
1063
1054
1048
1043
1039
1036
1032
1027
1019
1017
1015
1012
1011
1009
1006
1002
1002
1004
1008
1007
1001
1002
1007
1017
1027
1034
1039
1052
1059
1070
1085
1100
1119
1144
1168
1193
1216
1233
1249
1267
1286
1304
1320
1322
1316
1307
1303
1296
1288
1268
1253
1237
1233
1235
1227
1193
1153
1107
1061
1025
996
969
947
933
929
924
916
909
902
894
888
886
883
877
865
860
854
853
850
846
849
846
842
841
843
841
836
832
835
839
845
844
842
839
841
845
850
849
840
835
838
839
838
836
831
824
825
824
824
818
815
808
805
805
805
799
799
795
791
792
792
788
784
781
781
785
786
785
783
780
783
787
797
797
797
796
800
808
816
818
824
828
830
838
846
851
856
859
865
872
883
887
890
891
897
904
911
915
917
921
925
930
937
936
936
939
939
944
948
950
951
950
950
953
958
958
960
959
960
958
961
965
961
958
959
961
969
967
966
964
965
968
969
970
970
966
966
967
971
968
967
965
966
968
972
973
970
967
968
968
970
968
970
966
966
969
972
972
970
970
967
969
970
970
968
963
962
966
967
965
964
961
963
963
965
964
964
957
957
958
960
961
959
956
955
957
959
958
957
954
953
956
958
960
956
954
953
957
960
957
958
953
953
954
958
956
952
954
955
956
959
960
955
950
949
952
954
953
951
949
951
956
958
956
954
949
950
955
955
956
951
950
951
955
959
960
958
955
955
958
959
959
960
956
954
955
959
960
957
957
957
959
962
962
959
958
959
961
965
963
962
960
960
960
962
961
959
958
959
961
963
963
960
959
962
959
966
965
960
957
959
962
964
963
960
961
959
958
961
962
961
961
960
963
964
965
963
958
956
959
963
964
963
962
960
961
964
964
963
960
962
963
966
962
964
963
963
961
969
967
966
965
962
967
971
970
969
965
965
965
969
968
965
964
964
967
967
965
965
964
961
967
970
972
973
971
968
967
968
966
965
968
980
990
987
971
955
949
958
969
973
972
967
963
966
971
970
972
973
970
966
972
975
972
972
970
971
971
974
972
969
969
967
971
972
975
976
978
976
979
985
989
992
995
999
1007
1016
1027
1035
1041
1041
1044
1043
1042
1041
1037
1031
1027
1024
1016
1004
993
990
987
986
979
974
971
970
972
976
975
973
969
968
966
965
958
955
959
981
1028
1103
1199
1285
1341
1375
1388
1387
1355
1280
1168
1040
929
886
906
932
944
943
944
951
956
954
953
952
953
957
954
954
952
952
953
956
957
955
953
950
950
956
957
954
952
948
951
955
956
954
950
951
953
958
961
959
955
958
960
964
962
959
958
960
963
969
970
969
967
970
973
976
976
976
975
980
985
990
991
991
991
997
999
1006
1010
1010
1008
1013
1017
1023
1025
1028
1032
1035
1042
1050
1053
1054
1055
1057
1063
1067
1072
1073
1071
1071
1076
1079
1079
1078
1077
1075
1076
1079
1076
1074
1069
1068
1069
1069
1067
1062
1055
1051
1048
1050
1045
1037
1032
1027
1026
1030
1026
1021
1015
1012
1011
1009
1007
1004
1000
999
1001
1001
1000
998
995
993
995
996
997
994
989
989
992
995
996
994
995
996
999
1001
1001
999
1000
999
1002
1006
1007
1006
1007
1010
1018
1026
1027
1024
1018
1018
1013
1011
1003
996
988
977
958
933
897
855
825
801
785
768
750
739
733
735
747
763
779
802
825
855
887
925
961
985
998
995
985
975
966
958
958
956
959
965
962
958
953
948
945
946
945
945
941
942
948
949
950
949
948
947
951
960
966
967
965
968
973
979
983
987
985
983
992
998
999
1001
1005
1009
1014
1017
1021
1027
1032
1036
1043
1048
1053
1059
1067
1075
1081
1091
1098
1105
1112
1120
1131
1142
1149
1154
1159
1161
1171
1179
1183
1185
1184
1186
1190
1195
1194
1193
1187
1184
1183
1182
1177
1171
1162
1154
1152
1148
1142
1133
1125
1118
1114
1110
1106
1096
1088
1083
1076
1073
1062
1057
1050
1047
1042
1044
1043
1036
1031
1026
1026
1031
1027
1024
1022
1023
1025
1026
1024
1020
1016
1015
1020
1021
1020
1017
1010
1006
1013
1015
1013
1008
1004
999
1001
1005
1001
1000
995
995
994
994
992
991
983
985
985
988
983
982
981
979
980
981
975
970
964
965
967
971
966
960
961
960
962
963
955
951
949
951
954
960
956
952
951
950
952
957
956
954
949
948
954
957
952
946
942
940
941
947
945
942
940
939
942
947
944
941
942
943
944
946
948
947
946
941
944
944
944
943
941
943
945
951
952
947
942
940
942
942
941
940
939
939
940
946
945
939
938
941
944
948
950
947
945
943
944
947
947
946
944
944
945
946
948
945
943
944
945
947
947
945
944
943
946
947
949
946
946
944
948
948
947
947
946
946
946
949
951
945
945
948
952
955
952
949
946
944
950
954
954
952
948
946
949
952
951
951
948
950
947
955
954
951
950
950
955
956
954
952
950
952
952
956
956
955
952
952
953
957
958
957
954
951
956
958
959
953
955
955
956
961
959
959
956
956
960
961
963
960
958
960
965
969
968
969
971
975
983
993
994
994
1000
1013
1024
1030
1031
1027
1026
1026
1026
1031
1026
1020
1010
999
995
991
990
982
976
969
969
969
970
965
961
964
968
971
968
965
962
955
953
947
949
965
1000
1067
1153
1243
1311
1355
1384
1401
1396
1361
1285
1187
1070
962
903
912
940
955
954
953
953
959
957
956
955
955
956
959
957
954
952
953
956
956
956
952
954
952
954
955
956
953
953
954
956
960
959
957
955
955
958
958
959
956
958
957
961
964
966
964
961
966
970
972
971
972
972
970
976
981
981
980
982
982
989
994
997
998
997
999
1005
1011
1014
1015
1017
1018
1024
1033
1036
1038
1037
1044
1051
1058
1061
1065
1067
1071
1078
1084
1087
1089
1090
1091
1096
1101
1102
1102
1101
1099
1099
1104
1102
1099
1094
1091
1094
1094
1084
1083
1078
1075
1073
1073
1068
1059
1055
1051
1049
1048
1043
1042
1037
1033
1034
1032
1028
1025
1022
1019
1021
1019
1019
1013
1011
1011
1012
1012
1008
1008
1005
1000
1004
1007
1004
1004
1000
1006
1006
1008
1006
1004
1003
1002
1005
1006
1010
1006
1006
1003
1006
1010
1013
1010
1009
1010
1011
1017
1012
1012
1008
1010
1012
1014
1015
1011
1010
1011
1010
1013
1008
1005
1004
1004
1005
1007
1010
1005
999
997
998
1003
1001
999
995
993
993
996
996
996
992
990
988
990
984
983
981
980
981
984
981
979
974
971
972
977
978
977
975
971
969
969
971
968
968
969
973
975
973
971
968
967
966
967
967
968
963
968
971
974
969
967
963
964
966
967
965
963
964
963
962
964
963
963
961
961
966
970
971
967
963
965
971
978
981
982
979
983
988
1001
1009
1019
1026
1026
1030
1032
1033
1031
1029
1029
1029
1027
1022
1009
999
993
989
991
986
977
970
968
962
963
959
957
956
955
956
960
956
955
951
952
952
956
952
944
931
922
923
937
964
1009
1078
1166
1251
1318
1364
1395
1413
1414
1403
1366
1298
1201
1077
959
885
886
915
936
934
934
936
940
942
945
946
942
944
948
947
943
941
938
941
946
943
942
938
941
945
949
950
948
946
946
947
950
948
948
942
941
947
950
949
947
945
948
952
951
949
955
956
959
959
959
962
960
957
961
966
968
966
970
967
968
972
977
979
977
980
980
984
991
994
996
993
998
1004
1008
1013
1016
1020
1021
1025
1033
1035
1035
1039
1046
1057
1061
1063
1065
1067
1074
1082
1089
1095
1097
1098
1101
1105
1109
1110
1113
1113
1113
1112
1116
1113
1112
1107
1100
1101
1098
1096
1089
1078
1077
1074
1072
1067
1054
1051
1048
1044
1042
1036
1030
1025
1021
1020
1020
1015
1012
1007
1004
1004
1001
997
991
989
988
987
989
986
981
977
975
975
977
974
970
967
968
968
971
971
966
964
960
962
963
965
963
963
966
964
970
968
965
962
963
969
972
973
973
967
967
971
974
975
975
974
976
980
986
990
995
999
1004
1014
1027
1041
1052
1065
1082
1105
1133
1163
1181
1195
1189
1173
1155
1131
1101
1072
1044
1008
955
886
821
780
770
782
808
824
831
834
830
816
807
805
808
813
815
816
824
832
841
849
856
867
885
899
913
920
924
931
946
951
952
951
954
957
964
967
968
972
973
977
977
979
978
980
976
982
987
987
989
990
991
989
985
982
985
993
996
1000
1002
1001
999
999
1001
1005
1012
1016
1017
1016
1020
1027
1038
1044
1043
1043
1050
1062
1075
1082
1088
1092
1098
1110
1120
1121
1122
1124
1132
1145
1158
1163
1163
1163
1168
1174
1180
1177
1169
1161
1163
1175
1177
1173
1167
1163
1159
1156
1151
1146
1136
1131
1130
1131
1129
1126
1120
1110
1102
1092
1081
1070
1055
1052
1052
1054
1055
1052
1041
1028
1026
1031
1038
1034
1023
1016
1023
1036
1042
1035
1021
1010
1002
998
999
999
1002
1001
1003
1009
1024
1036
1046
1047
1051
1061
1076
1093
1110
1125
1147
1176
1202
1221
1237
1256
1273
1288
1306
1324
1324
1312
1300
1305
1311
1314
1311
1316
1325
1332
1327
1299
1260
1216
1160
1106
1056
1011
978
949
934
932
929
916
902
888
881
884
892
886
871
864
860
861
860
857
853
848
847
850
849
844
839
833
826
831
835
836
838
838
841
845
845
840
839
840
841
842
846
855
859
853
845
836
831
816
798
789
786
792
804
814
820
816
805
802
805
802
796
796
800
803
806
802
789
782
781
784
788
785
786
788
787
790
792
801
808
812
814
816
819
820
825
825
826
831
842
844
848
855
869
884
891
890
892
899
910
918
915
910
909
914
928
934
935
934
937
938
942
950
954
951
950
949
952
957
963
966
961
954
953
956
967
968
962
952
952
956
964
963
962
960
958
961
963
963
966
969
973
974
971
965
963
966
969
978
988
995
999
990
968
953
946
944
950
954
954
953
951
943
946
955
961
966
972
981
985
989
992
980
959
934
922
930
943
950
939
924
920
933
950
961
961
950
938
937
940
957
976
990
985
975
964
965
972
980
974
957
939
929
927
931
940
943
941
941
944
949
960
981
1004
1011
995
963
944
931
928
934
946
957
957
950
937
935
945
956
961
961
947
934
928
931
940
948
969
988
1002
995
963
929
915
924
946
968
971
954
933
920
933
955
975
982
971
952
939
935
934
933
934
930
934
935
942
945
949
951
954
955
955
952
950
951
957
955
954
953
953
958
959
957
956
953
948
949
950
952
958
962
959
957
960
961
959
957
960
962
967
966
962
960
962
968
969
967
964
964
967
967
969
965
965
966
968
967
967
961
963
965
963
963
964
966
966
966
965
969
972
974
971
969
969
967
967
965
964
966
966
972
975
976
975
973
968
966
967
971
972
970
967
971
973
973
972
967
969
972
974
978
979
980
984
977
965
963
973
983
981
980
983
981
982
981
982
990
999
1001
1000
1003
1007
1016
1032
1043
1046
1044
1042
1041
1046
1046
1054
1045
1029
1013
1013
1016
1012
1001
994
991
989
990
983
980
980
983
985
980
977
977
978
979
983
979
969
962
962
978
1009
1060
1132
1215
1287
1340
1372
1385
1380
1351
1294
1201
1091
980
911
902
922
943
953
956
959
959
958
963
963
968
964
958
960
960
962
962
962
955
959
962
963
962
962
958
958
960
960
961
961
960
961
962
967
961
958
959
958
962
966
967
967
966
967
970
973
974
972
972
971
971
976
973
977
977
979
983
986
985
987
987
987
994
999
1000
999
1001
1004
1010
1017
1017
1017
1016
1023
1029
1035
1038
1040
1041
1044
1050
1057
1063
1069
1069
1069
1074
1080
1086
1086
1087
1086
1092
1097
1099
1099
1098
1099
1102
1105
1098
1089
1086
1089
1093
1095
1092
1089
1081
1080
1078
1075
1073
1065
1061
1061
1060
1057
1052
1046
1039
1037
1034
1035
1034
1028
1026
1023
1023
1022
1021
1015
1012
1010
1014
1018
1017
1013
1009
1008
1011
1014
1012
1011
1013
1014
1015
1018
1016
1017
1013
1015
1018
1021
1023
1022
1021
1020
1024
1027
1029
1030
1033
1038
1045
1055
1065
1074
1080
1090
1102
1111
1121
1135
1154
1178
1199
1196
1167
1115
1050
972
903
850
819
803
798
800
813
842
871
893
907
918
929
942
948
950
954
956
957
961
955
955
951
951
951
951
946
941
935
937
935
940
938
944
945
946
945
948
947
952
957
962
966
966
970
969
969
973
977
979
978
974
973
974
973
978
981
982
980
983
985
988
994
993
997
998
1002
1005
1003
1003
1004
1009
1015
1022
1030
1034
1039
1048
1054
1063
1071
1074
1078
1084
1092
1100
1102
1106
1105
1107
1113
1114
1114
1111
1106
1105
1107
1102
1102
1096
1089
1084
1082
1083
1075
1067
1058
1055
1053
1053
1048
1041
1036
1031
1028
1027
1022
1016
1019
1017
1017
1017
1015
1012
1011
1011
1013
1014
1011
1009
1006
1010
1013
1017
1009
1001
994
988
995
1001
1002
998
997
995
996
1003
1002
1002
1004
1006
1009
1007
1008
1002
1000
1000
1001
997
997
992
988
989
992
995
993
990
991
990
987
990
989
990
991
995
1000
1001
994
979
963
955
956
966
965
960
958
959
963
967
966
964
958
961
964
966
967
964
961
958
959
964
965
965
964
964
964
962
960
960
961
961
963
961
961
954
948
946
949
951
948
947
945
946
950
957
954
954
951
950
954
956
954
953
951
949
955
958
959
953
953
951
955
958
958
952
953
955
957
959
960
957
956
953
955
960
958
954
952
953
953
958
959
958
954
955
957
960
958
954
957
954
956
962
960
956
955
955
957
957
956
957
953
957
958
962
960
957
955
955
957
961
963
958
956
959
963
963
959
957
954
957
961
966
964
963
961
961
960
964
963
963
960
960
963
966
964
962
960
959
964
968
969
964
959
958
964
966
967
966
964
964
966
971
973
974
973
981
985
992
995
998
1003
1013
1026
1033
1033
1028
1025
1027
1030
1034
1031
1024
1014
1007
1000
1001
993
987
978
972
975
977
974
972
971
970
967
974
974
966
964
960
953
950
955
980
1024
1098
1185
1269
1327
1363
1382
1387
1364
1303
1198
1072
961
902
914
945
961
958
954
953
958
964
965
963
958
957
959
961
961
958
954
954
957
957
960
956
954
953
958
959
957
959
956
955
959
963
958
961
961
960
960
964
964
964
962
964
967
970
970
971
966
969
973
976
977
977
979
980
982
989
990
991
990
995
996
1002
1007
1008
1009
1010
1019
1026
1029
1031
1034
1036
1042
1050
1052
1056
1056
1060
1066
1074
1079
1080
1079
1082
1088
1094
1097
1099
1096
1096
1097
1103
1103
1098
1096
1094
1095
1094
1088
1080
1075
1072
1069
1069
1062
1055
1048
1050
1047
1035
1030
1033
1041
1039
1031
1032
1033
1030
1025
1022
1015
1011
1011
1004
1003
1000
1002
1005
1008
1004
999
998
999
1000
999
1001
996
993
994
996
999
998
998
1000
1003
1005
1005
1004
1002
1000
1003
1007
1007
1010
1014
1017
1022
1026
1031
1038
1042
1045
1051
1060
1071
1084
1092
1099
1116
1149
1178
1193
1194
1177
1154
1131
1097
1064
1025
973
906
839
778
740
726
735
764
790
801
805
803
799
798
803
812
815
821
832
856
873
883
891
899
909
915
924
929
933
938
941
946
947
949
945
947
953
960
970
972
971
973
974
978
978
978
979
977
982
985
986
993
992
992
995
993
997
994
995
996
998
1002
1008
1012
1013
1017
1018
1023
1029
1032
1036
1044
1053
1061
1073
1081
1083
1087
1091
1106
1117
1122
1123
1128
1133
1135
1144
1147
1151
1146
1146
1155
1164
1162
1155
1153
1144
1140
1141
1144
1142
1137
1131
1129
1123
1115
1110
1101
1098
1098
1095
1082
1071
1066
1065
1066
1068
1061
1050
1048
1050
1051
1047
1042
1042
1036
1030
1028
1030
1032
1029
1025
1026
1024
1023
1018
1017
1018
1017
1022
1026
1028
1033
1044
1054
1065
1074
1082
1096
1114
1132
1148
1164
1181
1196
1209
1233
1258
1276
1276
1260
1239
1226
1212
1198
1170
1137
1115
1106
1115
1124
1121
1110
1099
1080
1052
1026
1001
974
960
949
951
946
940
933
930
921
912
908
903
900
891
881
883
890
897
896
890
881
876
873
872
876
884
890
893
894
893
893
888
888
891
891
884
874
877
888
900
901
891
889
888
881
873
870
877
880
874
870
875
878
873
865
863
867
869
873
871
866
866
871
880
890
893
892
892
894
900
907
911
914
914
913
918
935
941
939
936
942
949
956
958
963
962
960
966
972
973
974
978
980
982
986
987
977
967
971
980
986
981
982
980
977
977
982
981
977
976
979
983
988
981
977
975
976
982
984
985
980
973
976
983
984
983
982
975
976
980
980
981
977
978
978
980
978
981
976
974
974
976
978
975
966
965
969
971
969
969
963
959
960
967
970
964
958
957
962
968
967
960
957
962
961
958
958
962
963
955
949
953
957
953
955
956
954
954
954
953
950
949
942
939
935
932
929
928
932
939
935
927
922
930
951
968
976
967
960
957
952
950
943
942
946
945
941
944
950
945
934
937
946
958
962
955
942
937
936
941
950
954
952
949
951
958
957
953
944
939
940
946
949
953
954
951
948
945
952
957
954
951
948
953
955
954
952
952
951
952
956
958
956
951
950
954
954
951
952
951
957
959
957
955
955
955
956
963
962
957
954
953
955
960
963
963
960
953
947
954
961
960
953
947
949
953
962
963
961
956
955
956
959
959
958
951
942
943
957
973
972
960
957
959
964
963
962
958
955
958
962
967
968
963
960
961
965
960
956
957
962
962
963
959
958
965
971
971
967
964
966
968
974
981
984
975
960
958
963
971
976
978
977
981
979
976
972
968
966
971
972
978
988
993
993
989
990
995
1003
1012
1018
1027
1034
1033
1027
1022
1021
1020
1023
1030
1039
1035
1021
1007
999
996
994
993
987
983
984
985
988
988
983
978
974
973
974
976
977
972
964
967
990
1016
1043
1088
1166
1247
1304
1329
1334
1328
1319
1295
1231
1129
1013
917
886
910
937
948
949
946
944
949
958
969
977
976
969
960
962
966
963
958
949
948
955
969
972
966
956
953
957
955
932
918
934
964
978
967
958
957
957
959
961
958
962
980
994
996
995
998
994
984
978
984
994
994
994
992
987
992
992
984
993
1003
1009
1008
1008
1009
1012
1013
1016
1026
1028
1028
1024
1030
1030
1037
1045
1050
1046
1043
1043
1056
1065
1073
1074
1073
1074
1077
1080
1086
1092
1090
1077
1079
1093
1101
1106
1103
1103
1103
1104
1101
1091
1084
1080
1083
1090
1092
1082
1077
1082
1080
1077
1070
1066
1062
1059
1054
1053
1052
1046
1035
1027
1035
1039
1032
1023
1020
1021
1018
1014
1013
1016
1015
1012
1009
1014
1009
998
995
1000
1010
1019
1013
1008
1007
1009
1015
1017
1014
1008
1005
1009
1016
1024
1022
1020
1020
1020
1023
1029
1029
1030
1023
1013
1014
1029
1039
1034
1031
1032
1036
1044
1051
1060
1067
1076
1086
1099
1103
1121
1138
1164
1195
1219
1224
1223
1204
1173
1121
1042
947
864
807
789
800
825
857
888
903
913
924
933
935
936
938
939
936
939
938
938
936
931
929
931
931
925
923
921
922
924
920
917
915
918
925
930
929
926
926
933
940
940
938
936
935
944
951
949
943
942
946
950
952
953
948
945
947
950
949
955
954
949
950
952
956
960
963
960
961
966
972
982
983
983
988
997
1002
1004
1009
1017
1029
1039
1047
1055
1057
1060
1064
1065
1069
1078
1075
1076
1079
1083
1082
1086
1084
1082
1077
1074
1073
1074
1069
1062
1060
1058
1054
1054
1050
1041
1035
1033
1034
1033
1027
1019
1015
1018
1021
1021
1015
1011
1009
1007
1008
1007
1009
1009
1007
1008
1007
1010
1009
1002
997
1001
1005
1005
999
998
998
1002
1002
1004
1005
1004
999
990
991
1001
1005
999
995
994
998
1000
1002
993
984
987
988
997
995
991
986
986
987
990
990
982
980
981
983
985
983
981
975
975
975
976
975
971
965
968
969
974
972
967
961
957
963
964
965
962
962
961
960
966
966
963
958
953
957
962
963
958
957
954
955
959
958
958
952
949
953
961
959
953
953
953
956
959
953
949
948
953
961
964
957
951
947
943
943
943
941
938
940
941
944
946
945
945
944
943
947
949
947
948
944
944
947
950
951
947
944
943
946
952
950
950
946
948
953
954
950
942
942
947
953
956
953
952
952
952
958
962
960
953
952
949
953
952
948
941
940
944
948
952
951
947
945
947
950
953
954
951
951
948
952
955
955
950
949
949
950
954
952
954
949
953
958
962
962
964
958
951
951
955
958
957
954
951
952
959
960
959
953
949
948
956
954
954
951
953
954
956
958
953
953
956
961
964
964
961
956
956
960
967
973
968
966
967
966
964
958
963
968
973
975
981
981
986
992
1001
1013
1024
1029
1024
1018
1020
1024
1028
1029
1029
1020
1010
1014
1021
1021
1016
1006
990
974
970
966
962
952
940
931
934
944
948
945
944
945
948
947
941
940
941
946
974
1005
1051
1123
1201
1272
1313
1336
1348
1346
1330
1288
1212
1105
998
916
881
891
919
930
930
928
930
938
946
948
946
941
938
938
943
947
944
939
936
942
949
947
946
946
947
945
947
943
939
931
922
925
938
942
937
936
937
939
946
950
953
958
972
989
1002
997
977
949
934
935
948
963
970
969
963
962
960
955
958
964
970
977
980
980
982
987
988
995
1004
1008
1008
1005
1005
1016
1026
1031
1031
1031
1041
1046
1054
1056
1057
1064
1069
1077
1085
1089
1090
1091
1095
1098
1100
1099
1095
1089
1091
1096
1108
1119
1119
1107
1095
1098
1106
1111
1108
1096
1085
1082
1084
1084
1086
1085
1081
1074
1059
1046
1035
1030
1034
1032
1023
1022
1023
1018
1014
1014
1014
1007
1000
997
1001
1004
999
993
993
995
999
998
994
989
988
991
992
996
996
1000
994
991
992
1003
1012
1008
998
990
990
989
993
1008
1022
1034
1036
1041
1043
1052
1074
1091
1103
1113
1126
1146
1170
1191
1219
1237
1245
1260
1290
1329
1366
1404
1437
1461
1476
1474
1473
1469
1450
1414
1359
1295
1208
1103
1009
953
939
938
932
929
921
917
910
901
899
905
904
897
889
887
884
884
881
871
861
859
865
869
869
868
866
865
865
862
872
876
868
862
871
876
876
876
874
867
859
854
851
849
853
854
851
851
848
846
836
831
829
831
833
828
820
811
810
809
810
809
805
794
788
790
792
790
787
782
776
779
780
776
777
776
777
781
784
792
790
793
793
800
807
814
821
824
829
835
843
846
844
846
859
874
885
886
886
884
891
899
904
906
906
910
914
915
920
919
923
928
927
932
934
935
934
935
939
937
936
943
953
955
954
955
955
954
952
951
951
958
965
965
962
956
959
965
968
963
961
958
955
965
977
981
978
976
973
974
981
980
981
979
977
978
988
989
986
984
986
985
985
983
978
975
984
993
996
993
987
986
985
985
982
981
977
977
978
979
983
982
978
974
974
972
972
972
977
980
973
975
982
985
979
974
973
978
982
979
976
974
973
975
978
975
975
970
970
973
971
970
973
973
968
965
968
979
980
977
973
974
975
975
973
970
968
970
971
972
974
973
970
970
974
975
972
969
968
973
976
975
975
974
972
974
978
979
979
975
972
973
977
979
979
981
978
978
975
975
978
977
979
979
985
982
979
977
975
975
977
980
983
979
978
977
979
979
979
975
979
985
985
985
982
980
982
985
987
986
984
977
977
977
985
987
990
983
980
982
986
990
988
981
980
985
989
989
985
984
984
992
996
996
992
992
992
994
996
996
997
994
992
994
999
1001
998
999
1003
1009
1014
1019
1020
1018
1025
1032
1042
1056
1061
1056
1053
1056
1061
1062
1062
1059
1056
1050
1043
1034
1027
1020
1017
1011
1006
1002
999
998
994
999
1002
1001
996
993
992
997
1000
995
988
983
996
1029
1081
1154
1240
1308
1356
1389
1402
1389
1346
1265
1161
1048
956
919
936
960
965
967
974
980
979
979
977
981
983
982
982
983
983
981
985
981
981
982
980
982
986
984
982
979
981
985
988
990
990
981
979
985
986
983
983
985
991
990
989
991
996
1001
1002
1000
997
1002
1005
1003
1001
996
1004
1014
1019
1015
1015
1020
1025
1026
1026
1021
1020
1022
1029
1038
1045
1047
1048
1055
1063
1062
1066
1066
1069
1074
1080
1084
1085
1087
1092
1101
1105
1108
1104
1105
1103
1110
1121
1123
1123
1120
1121
1119
1120
1121
1117
1114
1109
1110
1108
1103
1094
1092
1084
1075
1071
1076
1073
1063
1054
1048
1049
1047
1049
1044
1035
1032
1030
1031
1029
1027
1031
1034
1036
1030
1019
1005
990
986
986
994
999
1002
1000
1001
1000
1001
1002
992
991
1001
1007
1003
998
996
1000
1002
1007
1009
1009
1011
1010
1009
1014
1017
1018
1016
1021
1033
1047
1062
1067
1078
1078
1082
1093
1104
1118
1140
1175
1213
1234
1230
1208
1173
1134
1091
1043
981
901
821
756
726
730
750
770
784
794
802
799
797
801
808
812
814
821
839
859
876
889
904
918
924
930
935
940
946
957
958
959
953
957
961
971
977
982
986
987
988
988
990
994
994
1001
1007
1004
998
998
1001
1000
1002
1006
1007
1008
1007
1006
1010
1018
1030
1039
1041
1034
1033
1042
1047
1050
1055
1062
1069
1075
1080
1086
1089
1091
1104
1125
1140
1137
1135
1140
1142
1152
1167
1177
1182
1176
1169
1174
1174
1171
1173
1184
1182
1172
1160
1157
1154
1148
1139
1139
1143
1142
1130
1118
1107
1106
1105
1103
1097
1086
1068
1053
1051
1053
1051
1052
1046
1040
1025
1015
1020
1030
1029
1024
1026
1028
1033
1034
1034
1027
1013
1003
1004
1008
1016
1021
1023
1014
1009
999
995
998
1002
1000
998
999
996
1005
1007
1011
1003
1001
1007
1012
1005
988
984
1002
1008
1004
989
982
985
985
983
974
970
974
976
970
966
967
971
969
965
960
962
966
963
963
958
957
963
972
973
956
945
946
952
962
961
958
953
954
961
962
958
955
943
946
950
957
956
952
950
953
957
961
954
951
948
944
941
946
960
957
951
950
954
956
951
941
941
952
962
966
954
943
937
936
941
952
954
948
945
947
955
964
965
956
948
940
933
928
932
940
945
944
943
948
948
948
947
947
949
950
953
947
942
945
948
956
955
953
950
946
952
954
955
949
948
946
948
956
959
953
952
954
957
959
961
957
951
951
953
960
960
957
959
960
962
963
956
956
952
953
955
958
962
965
967
966
968
970
972
969
972
967
951
940
942
946
951
952
955
959
959
958
957
957
963
967
966
964
961
962
966
968
965
962
967
969
968
972
974
975
979
984
984
983
992
1004
1011
1014
1023
1030
1028
1025
1023
1026
1026
1026
1027
1018
1006
995
996
999
993
986
980
975
973
973
975
974
968
972
977
983
984
979
978
970
971
981
1002
1034
1083
1156
1231
1292
1320
1326
1320
1289
1232
1136
1023
922
869
877
913
943
946
939
939
951
963
973
975
966
963
966
972
976
976
966
966
963
964
966
957
956
964
971
969
959
957
962
963
959
962
965
965
967
967
968
978
992
990
985
976
966
966
973
970
970
967
972
979
983
984
985
985
986
990
998
1000
998
998
1006
1014
1017
1019
1018
1014
1016
1026
1036
1040
1038
1039
1047
1056
1062
1062
1070
1076
1078
1076
1082
1095
1101
1101
1101
1104
1107
1107
1105
1104
1103
1102
1106
1108
1108
1099
1086
1081
1085
1089
1089
1078
1062
1055
1060
1062
1058
1048
1040
1035
1036
1032
1030
1026
1023
1024
1027
1021
1014
1013
1013
1015
1016
1012
1006
1001
1005
1009
1007
1007
1000
997
1001
1002
1007
1006
1006
1012
1011
1014
1016
1016
1020
1019
1019
1025
1031
1034
1037
1040
1047
1061
1071
1087
1101
1121
1136
1157
1177
1197
1213
1229
1248
1272
1304
1338
1378
1417
1444
1472
1482
1477
1466
1449
1418
1364
1278
1169
1062
992
956
952
957
953
944
938
942
946
948
944
937
928
924
927
927
921
916
912
908
908
909
904
901
896
895
893
893
894
897
893
888
890
890
890
891
893
894
894
896
897
898
893
891
891
890
887
883
879
877
876
879
879
873
861
856
861
865
862
856
852
849
851
848
845
841
841
838
839
841
840
837
836
837
844
848
852
857
859
862
867
874
878
876
871
886
908
911
911
909
908
918
924
932
936
940
939
942
946
948
954
958
958
956
962
965
968
965
963
965
970
977
978
975
973
976
981
984
984
980
978
984
987
993
991
988
988
990
995
997
995
993
991
991
995
998
998
997
995
998
1000
1000
1000
1005
1005
1004
1008
1010
1010
1009
1011
1007
1007
1009
1011
1013
1011
1010
1009
1006
1007
1013
1010
1003
1002
1014
1023
1017
1011
1007
1012
1014
1010
1008
1006
1008
1010
1012
1006
1000
993
993
995
1001
997
995
993
994
997
998
997
994
995
999
990
987
992
1002
1001
998
998
999
997
992
985
984
985
999
1002
999
994
990
995
999
996
994
990
988
992
999
1002
997
979
970
974
983
986
983
979
979
984
989
988
985
983
984
991
996
993
990
990
989
992
991
991
989
992
993
991
990
991
995
994
989
989
999
1002
996
987
976
975
987
988
986
982
981
982
988
986
982
984
988
995
992
985
979
979
981
986
991
992
985
980
983
991
991
977
976
987
995
990
990
986
983
981
982
983
987
988
986
985
979
986
993
995
994
991
993
995
994
994
986
984
989
994
1000
997
987
978
977
984
990
991
990
989
986
987
988
984
986
992
992
991
992
991
987
989
989
990
997
995
991
984
992
997
998
997
994
991
990
992
993
992
994
996
995
989
986
990
997
1000
998
1001
996
993
991
991
992
995
1000
996
991
990
1002
1016
1027
1026
1024
1024
1027
1031
1038
1042
1045
1052
1057
1058
1061
1060
1060
1057
1057
1053
1044
1028
1016
1017
1023
1020
1013
1010
1008
1000
994
998
1002
994
983
984
988
992
993
992
987
981
976
976
991
1012
1046
1099
1172
1248
1306
1339
1360
1366
1356
1337
1294
1211
1103
992
916
901
929
954
960
955
961
966
972
973
969
966
965
971
977
977
975
967
964
967
973
972
966
964
969
982
988
982
972
969
968
964
965
969
971
969
964
967
976
977
969
962
959
964
971
972
971
969
970
973
976
977
977
976
974
977
981
987
985
988
985
993
994
995
996
997
1001
1004
1009
1008
1006
1009
1016
1024
1029
1030
1031
1039
1044
1051
1052
1059
1054
1053
1060
1066
1071
1073
1077
1080
1087
1094
1095
1095
1101
1107
1108
1108
1112
1116
1113
1108
1107
1107
1108
1108
1106
1102
1095
1093
1094
1087
1078
1075
1070
1066
1061
1059
1055
1049
1047
1042
1036
1026
1016
1019
1024
1026
1025
1019
1014
1014
1008
1003
1006
1006
1006
997
993
993
997
991
987
990
998
1000
995
991
992
990
990
993
996
997
995
988
988
992
998
1004
999
995
997
1008
1014
1011
1011
1021
1035
1052
1069
1091
1107
1124
1139
1154
1172
1187
1201
1211
1225
1250
1276
1308
1340
1380
1420
1457
1477
1483
1476
1465
1449
1427
1397
1351
1281
1202
1112
1021
955
926
928
926
920
912
916
917
917
910
906
906
907
906
897
892
884
878
880
878
873
866
860
860
862
860
858
855
855
860
861
857
853
854
860
864
864
859
858
858
855
858
863
859
854
850
848
851
848
843
841
838
837
834
829
825
823
818
814
813
813
812
810
801
797
797
800
801
797
796
799
801
798
797
799
805
811
814
822
823
824
823
831
837
847
852
856
857
863
873
878
883
888
891
891
892
899
908
911
910
909
911
919
922
923
922
922
928
932
933
930
931
935
938
941
943
942
940
941
946
951
951
951
949
947
947
956
956
953
948
947
952
954
953
951
948
947
952
958
958
957
957
957
962
964
966
967
967
965
964
965
960
961
969
970
973
979
974
974
973
968
968
973
973
972
973
974
975
977
977
975
970
965
966
975
974
973
965
969
974
977
978
975
967
964
969
975
972
968
968
968
968
965
961
960
953
959
967
969
969
968
962
963
967
970
970
967
965
961
964
965
970
967
959
958
964
970
973
973
963
957
958
972
976
972
964
964
965
968
973
970
968
962
967
967
972
968
965
971
972
968
966
967
969
973
971
972
973
972
969
969
972
976
977
977
977
973
967
969
975
976
975
972
977
977
979
979
978
978
978
981
983
985
983
981
981
976
967
959
955
957
963
970
973
973
971
969
973
978
979
978
971
969
969
981
987
982
975
971
973
978
984
984
980
978
980
983
981
979
978
979
983
987
984
982
981
981
981
975
977
983
983
984
979
970
969
973
981
980
978
979
983
980
977
976
979
982
984
979
977
980
984
988
985
976
968
972
984
992
992
984
981
982
986
984
985
984
982
982
983
987
985
975
971
972
975
979
977
977
978
982
984
987
986
987
992
1001
1008
1015
1018
1017
1022
1032
1041
1051
1050
1050
1049
1050
1053
1047
1046
1045
1038
1031
1029
1026
1014
1007
1001
998
1000
1001
997
997
998
992
977
969
973
979
984
984
985
993
991
994
1006
1035
1085
1157
1235
1298
1341
1369
1390
1393
1366
1311
1225
1116
1010
936
914
934
958
964
961
968
975
979
982
981
979
981
978
974
972
971
974
976
979
977
977
975
977
981
982
978
975
975
983
983
984
983
979
976
977
981
986
985
981
982
985
993
989
989
989
987
990
995
996
993
990
992
1000
1005
1005
999
997
1000
1009
1011
1014
1015
1016
1018
1024
1029
1034
1034
1032
1035
1044
1050
1054
1050
1049
1053
1064
1071
1073
1074
1078
1080
1085
1091
1101
1111
1114
1111
1113
1118
1125
1123
1120
1114
1120
1131
1132
1128
1120
1114
1116
1120
1114
1109
1103
1095
1092
1088
1088
1083
1073
1066
1065
1068
1068
1062
1057
1047
1040
1036
1030
1030
1026
1019
1016
1023
1024
1022
1019
1015
1015
1014
1011
1008
1006
1013
1011
1006
1003
1007
1006
1001
999
1005
1004
1001
1005
1015
1022
1022
1016
1012
1010
1014
1016
1025
1028
1026
1028
1032
1043
1058
1071
1083
1101
1123
1144
1165
1185
1201
1217
1234
1257
1282
1307
1340
1382
1432
1470
1491
1499
1493
1478
1462
1436
1401
1345
1266
1170
1074
997
959
952
955
946
939
937
940
939
939
940
935
932
927
920
917
912
907
899
901
900
901
894
887
887
892
895
894
889
886
887
890
889
891
892
895
898
900
899
894
892
889
889
889
886
885
878
873
871
871
867
863
862
866
864
865
860
852
848
845
842
843
842
837
833
829
832
834
833
833
826
829
835
840
838
846
850
856
859
862
870
876
876
878
886
896
902
906
905
911
918
926
931
931
932
935
936
940
943
946
947
950
956
958
961
961
959
958
961
959
960
966
971
969
966
970
971
973
971
974
977
981
977
978
972
976
981
984
983
984
980
978
978
983
985
987
986
985
988
990
992
990
990
992
998
1002
999
1000
999
998
996
1002
1006
1006
1002
1000
1000
1002
999
998
996
995
996
1000
1000
1000
992
990
989
997
996
994
988
990
990
991
988
983
982
985
986
992
987
981
977
981
985
987
981
979
980
981
979
980
982
981
970
970
975
979
983
978
969
971
976
974
973
975
973
976
970
965
971
974
975
972
970
975
973
971
967
967
966
966
967
970
968
969
972
972
968
970
968
970
975
975
971
966
967
969
972
974
972
970
968
966
964
967
972
969
967
969
969
969
966
962
965
967
974
976
977
975
967
965
965
968
966
964
962
963
966
969
970
967
966
966
966
969
968
964
964
966
967
970
967
967
962
960
964
969
971
973
972
970
972
975
971
967
968
969
974
974
973
972
969
967
968
973
972
969
970
969
971
971
970
970
968
970
975
977
978
974
972
972
972
975
975
972
971
972
972
976
974
972
972
972
976
977
977
971
965
968
977
978
978
973
973
978
982
982
980
977
974
973
978
982
982
981
978
980
985
990
996
998
997
997
1001
1013
1026
1033
1031
1034
1037
1037
1037
1032
1030
1026
1023
1015
1010
998
988
988
992
995
993
980
976
973
976
982
985
985
981
979
977
978
977
977
989
1014
1061
1131
1214
1283
1324
1353
1356
1338
1288
1206
1106
1007
925
898
913
936
945
948
955
959
968
972
969
965
962
966
968
966
963
964
966
968
969
966
964
965
963
966
967
967
966
966
968
969
964
958
955
961
974
977
976
972
971
973
976
979
975
973
968
967
970
982
985
983
981
981
986
992
996
1003
1001
992
993
1006
1022
1026
1018
1015
1017
1027
1032
1034
1040
1039
1039
1045
1051
1056
1051
1053
1060
1069
1076
1079
1082
1084
1089
1093
1095
1095
1093
1093
1100
1103
1103
1101
1093
1091
1095
1095
1093
1087
1084
1074
1069
1068
1067
1061
1052
1050
1046
1046
1040
1035
1027
1023
1021
1021
1020
1014
1006
1003
999
1004
1003
1001
997
993
989
990
994
994
992
992
986
989
988
989
986
983
984
992
994
992
993
995
999
1002
1003
1006
1008
1010
1014
1026
1036
1051
1067
1092
1115
1128
1146
1165
1187
1210
1228
1245
1265
1296
1333
1372
1418
1454
1481
1500
1502
1499
1489
1471
1426
1349
1250
1139
1044
979
943
937
948
956
951
951
944
932
928
929
928
917
914
911
904
900
900
904
902
893
882
877
878
880
880
878
879
878
886
887
881
874
870
875
886
888
888
884
883
887
886
884
878
876
873
873
873
873
870
863
858
859
855
855
848
844
838
840
840
840
832
822
816
820
822
818
814
813
812
817
823
828
835
833
829
834
844
851
854
853
860
868
872
875
879
883
885
889
897
909
912
911
915
925
929
933
934
934
938
941
946
952
956
954
953
953
957
958
964
962
961
962
966
975
978
975
965
960
969
982
983
975
973
974
977
979
980
978
976
982
986
989
987
983
982
985
988
993
992
992
991
990
994
1001
1002
1000
999
998
1004
1008
1002
994
991
1002
1007
1006
1001
996
994
993
996
1003
1003
999
994
994
998
999
998
991
988
994
998
999
999
993
985
979
985
993
993
989
987
991
992
992
993
995
991
985
988
992
994
989
982
983
987
989
991
989
986
987
986
982
978
981
984
986
986
987
986
986
981
985
987
989
987
989
984
978
976
984
986
984
981
981
988
992
991
987
978
976
984
990
988
986
983
979
984
986
987
982
983
985
984
988
990
990
985
982
985
989
986
984
984
986
986
988
988
983
983
985
989
993
996
993
984
978
980
990
991
987
982
983
989
993
990
979
980
983
988
989
989
987
986
989
988
992
994
994
988
987
988
990
989
989
986
985
988
992
993
988
986
986
987
990
988
986
983
986
989
992
995
993
988
987
988
992
991
992
988
988
996
995
995
992
989
992
993
995
993
992
992
992
993
997
995
990
991
992
995
1001
1001
1001
1001
1009
1015
1019
1021
1025
1026
1032
1048
1057
1059
1057
1054
1054
1057
1060
1060
1062
1055
1049
1039
1033
1029
1023
1018
1016
1012
1011
1005
999
1000
999
1001
1005
1004
1000
999
997
1000
1002
995
990
990
1005
1042
1105
1190
1267
1325
1370
1399
1411
1399
1356
1282
1183
1076
986
936
939
969
986
986
986
986
990
991
995
994
992
990
987
985
988
990
995
992
986
985
988
989
993
992
992
990
986
991
992
992
991
990
990
995
995
995
993
989
990
992
997
998
998
995
997
997
1002
1002
1002
1001
1002
1007
1009
1011
1006
1003
1008
1013
1014
1015
1013
1011
1017
1021
1026
1025
1025
1027
1034
1036
1042
1048
1046
1043
1052
1056
1062
1065
1065
1067
1073
1079
1084
1088
1091
1090
1098
1106
1112
1111
1113
1114
1116
1119
1122
1123
1120
1117
1117
1117
1115
1112
1101
1100
1103
1104
1101
1095
1088
1083
1080
1080
1076
1073
1065
1059
1055
1053
1051
1050
1041
1035
1032
1034
1033
1030
1026
1020
1016
1018
1019
1016
1012
1007
1006
1006
1008
1006
1001
997
998
1000
1004
1003
1001
998
999
1007
1010
1006
1003
999
1001
1007
1009
1010
1006
1004
1007
1010
1013
1016
1014
1013
1016
1019
1026
1029
1031
1035
1048
1059
1075
1090
1110
1129
1153
1177
1202
1225
1249
1281
1317
1355
1385
1396
1387
1378
1360
1344
1326
1296
1258
1211
1147
1083
1030
993
967
951
940
935
929
924
919
920
930
937
944
947
944
945
945
943
943
940
934
929
928
925
928
925
924
922
920
922
924
926
923
919
923
929
933
934
932
932
934
940
939
936
938
937
938
937
936
937
936
936
935
935
937
936
934
932
931
932
933
932
930
927
924
930
933
929
924
920
923
922
924
924
923
924
927
929
934
933
933
933
938
943
952
954
955
955
961
969
975
977
977
979
982
989
994
998
995
987
988
994
1004
1004
1000
998
999
1000
1001
998
995
992
995
995
996
992
990
987
992
992
996
995
989
987
986
988
988
991
988
984
980
978
982
983
984
981
982
984
987
984
984
987
988
991
993
991
989
991
993
994
999
999
997
995
996
997
1003
1003
1000
1001
1001
1005
1006
1002
1000
992
997
1001
1006
1006
1005
999
999
1002
1006
1004
1001
999
994
994
998
997
996
992
991
991
992
991
990
987
984
986
988
986
985
982
982
984
986
981
979
979
980
979
981
980
977
975
974
976
975
977
974
969
969
971
974
970
971
967
965
966
968
968
967
966
965
965
970
969
968
964
965
965
968
966
964
963
964
967
972
971
966
964
965
970
974
972
967
962
959
960
961
959
958
958
960
961
964
960
956
953
959
958
960
958
959
958
960
961
963
963
962
961
963
964
966
964
964
963
964
966
969
970
966
963
964
962
968
964
965
963
962
966
969
968
967
965
966
967
969
970
969
967
966
970
974
973
966
966
967
967
969
970
971
968
967
968
970
969
964
963
965
965
972
970
967
965
965
968
970
970
965
965
966
970
971
971
966
965
967
967
971
971
968
967
968
969
973
972
970
967
966
968
973
972
967
969
968
969
970
970
968
967
968
972
974
973
970
967
967
971
973
975
968
967
968
973
975
975
974
975
977
984
986
989
989
988
994
1004
1018
1027
1033
1031
1031
1033
1035
1033
1034
1031
1027
1022
1019
1011
1005
998
994
991
987
985
975
970
967
971
973
971
967
965
967
970
970
970
960
952
940
938
945
968
1008
1075
1165
1254
1320
1366
1389
1403
1401
1378
1317
1224
1107
997
920
906
927
950
950
945
946
952
959
962
962
957
956
957
960
959
955
951
951
952
958
958
954
951
953
957
955
953
952
949
952
954
953
954
956
952
954
955
956
958
958
955
956
960
964
964
962
962
959
968
970
969
968
967
969
974
976
979
976
975
979
983
987
984
984
984
988
994
1000
1001
1003
1002
1007
1012
1018
1018
1020
1023
1027
1030
1037
1041
1045
1045
1053
1056
1062
1064
1068
1069
1072
1078
1083
1082
1082
1080
1081
1087
1089
1090
1086
1081
1083
1082
1080
1078
1075
1067
1065
1063
1064
1059
1053
1045
1043
1039
1036
1035
1028
1023
1022
1016
1018
1011
1007
1005
1002
1001
1002
997
993
987
987
987
987
985
980
979
981
980
983
982
980
976
977
980
985
987
982
979
985
987
990
988
989
989
992
997
999
1003
1007
1006
1012
1019
1033
1044
1059
1079
1097
1118
1139
1159
1178
1196
1218
1243
1274
1306
1336
1372
1412
1438
1448
1439
1421
1399
1378
1355
1330
1283
1220
1143
1066
1007
964
949
946
938
932
927
925
923
920
916
915
918
917
913
908
901
898
898
897
893
886
880
875
877
876
869
869
866
866
870
872
872
869
868
868
873
879
878
877
874
872
878
881
882
878
876
868
871
869
869
861
858
856
855
854
853
848
843
841
841
840
838
834
830
829
825
830
825
825
819
818
820
827
831
829
834
837
843
846
853
856
862
867
875
879
887
884
887
893
898
907
909
909
910
910
917
920
920
921
920
923
926
930
933
931
931
931
931
937
937
935
935
934
938
942
941
939
939
940
944
946
947
944
941
945
948
950
951
946
948
950
952
955
951
950
946
947
954
957
957
956
956
956
959
960
958
960
958
957
962
964
964
964
964
963
968
968
969
966
962
964
965
966
966
964
961
964
964
968
965
963
957
957
957
959
957
956
956
955
954
954
954
953
952
951
954
955
955
952
948
950
953
956
953
951
947
947
950
954
951
949
948
945
949
951
949
950
946
948
949
952
949
947
946
945
948
951
949
949
943
946
948
951
951
946
945
948
947
952
954
948
948
948
947
952
951
947
944
945
950
948
951
947
948
948
948
951
953
950
948
949
950
955
953
949
947
947
951
952
952
952
950
950
953
956
955
953
951
947
952
954
957
955
951
952
954
958
953
954
949
951
953
958
958
955
952
955
954
954
955
954
952
952
955
959
959
957
955
955
957
956
958
953
954
956
958
962
961
959
958
956
958
961
961
961
960
959
961
962
960
961
959
958
961
966
966
960
959
964
963
965
964
962
961
964
965
967
964
959
962
963
967
969
968
968
966
970
970
977
982
985
985
988
993
1001
1009
1019
1028
1033
1034
1037
1033
1029
1032
1032
1030
1028
1016
1007
998
993
992
991
981
976
972
971
974
975
972
970
968
969
971
969
963
953
939
932
942
971
1022
1097
1188
1272
1338
1384
1409
1423
1408
1374
1303
1201
1074
953
898
912
944
957
955
951
953
956
961
963
960
955
950
951
953
954
953
949
949
949
949
954
954
951
949
951
953
955
953
953
951
951
954
955
956
952
951
952
958
961
960
958
957
958
963
965
965
963
960
961
965
969
968
967
969
973
977
981
982
978
979
985
992
996
997
996
996
1001
1006
1011
1016
1017
1019
1022
1025
1031
1038
1037
1038
1043
1049
1054
1057
1059
1059
1066
1070
1077
1079
1075
1078
1080
1085
1087
1085
1083
1081
1081
1082
1083
1077
1072
1067
1066
1064
1062
1057
1051
1044
1040
1038
1035
1032
1022
1017
1016
1015
1014
1008
1002
1001
997
998
998
996
992
987
984
985
985
986
982
979
981
982
984
982
979
976
978
983
985
981
977
977
977
980
987
988
985
984
984
987
990
991
992
991
992
997
998
1000
998
1005
1012
1024
1033
1044
1052
1068
1091
1122
1153
1179
1211
1246
1283
1314
1328
1319
1296
1269
1252
1239
1219
1185
1141
1086
1029
973
934
914
907
903
894
887
885
886
888
894
903
913
921
925
927
922
918
915
915
911
907
904
904
906
908
911
906
905
907
913
918
921
925
925
927
927
928
928
928
926
926
931
932
930
929
927
927
929
932
931
929
927
928
930
929
927
926
925
923
927
933
932
930
931
933
940
945
947
946
948
954
960
967
971
973
974
978
989
993
997
997
1001
1004
1011
1013
1015
1013
1009
1013
1015
1016
1012
1011
1009
1008
1006
1009
1004
998
995
992
992
991
986
985
979
979
977
978
976
974
969
968
970
971
969
966
964
968
968
971
970
968
966
967
972
973
973
972
969
972
976
977
976
978
976
980
984
984
984
985
989
993
997
1007
1016
1024
1032
1047
1062
1088
1103
1117
1135
1151
1167
1185
1206
1229
1250
1265
1267
1268
1270
1271
1276
1273
1258
1238
1219
1210
1209
1217
1222
1213
1183
1139
1087
1045
1016
990
965
946
937
927
922
917
910
901
892
887
885
883
875
868
862
860
863
866
863
856
850
849
851
862
864
867
865
865
867
867
867
867
865
864
866
866
865
861
858
857
856
857
858
854
849
850
847
850
847
844
843
846
847
849
845
843
840
843
848
850
850
849
849
851
855
862
861
867
867
872
876
884
886
886
890
893
898
909
910
913
915
920
923
930
933
936
936
942
947
951
951
949
948
949
949
955
951
949
952
952
956
957
956
952
952
950
952
956
955
952
949
952
954
954
955
952
955
956
959
961
957
955
953
958
958
961
960
956
956
957
959
963
959
957
959
958
960
961
962
957
957
958
959
961
960
957
955
954
958
959
960
957
953
954
956
957
955
952
951
953
954
956
955
952
948
948
948
950
950
949
946
943
947
950
948
944
942
942
944
948
946
942
944
945
947
948
948
946
941
942
944
945
949
945
943
942
944
948
950
942
942
941
944
945
946
944
942
944
948
950
946
944
940
942
945
949
947
946
944
946
949
949
951
946
943
947
951
954
951
951
947
949
951
951
948
943
945
946
949
955
953
949
946
946
948
953
953
950
946
948
952
950
952
950
947
950
951
951
954
950
949
952
953
955
954
949
948
949
954
957
956
956
955
953
953
958
955
951
953
957
958
960
957
953
952
954
956
961
959
957
955
956
958
963
962
960
958
956
960
963
962
959
957
961
964
964
963
964
962
961
962
963
964
961
960
963
965
968
966
966
963
965
966
967
967
966
964
964
969
969
967
967
961
963
968
971
973
968
966
967
968
972
972
971
966
967
972
977
978
976
971
975
978
981
980
976
972
972
976
979
979
975
975
977
979
984
985
982
987
990
994
995
998
1002
1011
1028
1038
1043
1040
1035
1035
1037
1041
1041
1033
1023
1014
1009
1005
1001
995
990
983
982
981
985
983
981
978
980
981
982
981
976
964
955
950
963
991
1039
1120
1220
1305
1362
1394
1410
1410
1388
1329
1232
1105
984
916
918
953
967
964
956
955
964
971
976
973
971
967
964
966
966
967
965
966
968
967
971
968
965
962
961
961
965
964
963
964
967
969
971
974
970
968
973
974
975
973
970
971
971
973
974
973
975
976
980
983
985
982
979
980
984
986
990
993
993
993
997
1002
1003
1005
999
1003
1006
1011
1018
1022
1021
1026
1027
1034
1041
1040
1036
1035
1042
1049
1056
1057
1056
1054
1059
1063
1067
1071
1070
1067
1071
1076
1080
1080
1077
1070
1064
1064
1072
1071
1067
1062
1059
1057
1056
1052
1049
1047
1045
1045
1042
1036
1031
1028
1028
1026
1022
1016
1005
1005
1004
999
991
980
981
987
991
993
992
992
993
998
1004
1003
1003
1002
994
991
996
999
1002
999
995
991
992
991
995
998
1003
1009
1017
1024
1027
1021
1020
1022
1025
1031
1040
1040
1050
1063
1083
1101
1125
1146
1163
1187
1211
1235
1259
1279
1308
1344
1381
1411
1424
1413
1388
1372
1349
1321
1294
1256
1210
1148
1085
1028
986
957
942
934
925
922
916
919
922
929
934
936
936
931
926
917
916
912
912
910
904
893
886
887
890
891
887
886
891
892
892
888
888
887
888
898
903
902
900
897
896
898
899
897
890
885
889
893
898
896
887
881
879
880
884
878
869
866
868
872
875
871
865
862
860
861
862
864
867
874
882
882
886
887
890
893
892
896
904
910
913
914
914
920
922
931
932
932
932
937
945
947
946
941
942
948
954
949
945
946
951
957
959
958
951
946
951
958
962
960
958
956
954
960
961
962
963
960
962
966
969
971
971
968
968
968
971
969
968
972
970
971
976
979
980
981
985
987
983
976
972
977
978
983
983
984
984
980
978
981
986
986
985
981
982
982
983
981
977
974
976
978
985
981
978
975
974
975
980
978
968
967
971
972
977
978
975
970
967
972
975
973
968
963
963
966
970
970
965
965
964
970
966
965
965
962
963
967
968
972
966
965
961
967
968
963
958
959
961
966
970
964
962
962
964
967
968
966
965
963
965
968
970
966
965
964
966
968
967
965
964
963
965
964
963
965
966
958
967
966
970
963
959
959
960
965
971
970
968
969
967
960
960
959
964
965
962
963
969
967
964
963
964
969
974
973
968
966
965
961
964
968
969
965
962
967
974
975
973
972
965
966
969
970
971
970
969
969
968
969
969
965
964
966
974
974
974
974
971
970
969
965
968
969
974
974
971
967
966
966
970
971
973
972
972
972
975
973
980
980
980
973
968
972
976
977
971
970
973
973
978
977
974
968
969
972
979
978
975
966
966
972
976
977
973
970
971
977
979
980
979
977
977
978
981
980
981
982
982
983
982
980
976
973
978
982
984
988
985
985
987
994
998
1001
1000
1007
1016
1030
1043
1045
1039
1034
1030
1035
1043
1045
1036
1027
1023
1017
1013
1005
998
992
991
989
992
988
985
983
978
978
981
980
980
977
978
974
975
971
964
964
977
1008
1057
1126
1205
1281
1339
1372
1393
1400
1387
1344
1270
1170
1055
948
898
905
933
954
960
959
963
964
967
973
978
981
971
961
958
960
968
973
977
975
972
973
971
969
963
960
960
960
960
962
966
965
961
960
961
971
980
982
979
975
972
968
972
974
977
979
981
978
972
974
977
980
982
980
981
982
987
992
998
997
995
989
987
990
1001
1013
1012
1004
1002
1008
1018
1021
1021
1022
1027
1028
1031
1032
1038
1040
1043
1047
1051
1053
1055
1059
1065
1069
1072
1071
1069
1070
1075
1078
1083
1079
1076
1072
1075
1082
1082
1079
1074
1074
1076
1077
1076
1070
1065
1060
1058
1060
1062
1058
1052
1045
1043
1041
1033
1023
1022
1021
1022
1021
1019
1013
1014
1012
1007
1006
1002
1002
1001
996
995
990
991
989
994
994
991
985
987
990
994
992
992
992
990
987
985
987
993
1000
1005
1005
1000
1001
1005
1011
1015
1014
1011
1013
1017
1018
1018
1010
1011
1013
1021
1028
1030
1024
1022
1020
1023
1026
1026
1023
1019
1014
1016
1018
1022
1020
1020
1017
1012
1013
1014
1009
1007
1007
1009
1005
1005
1002
1001
1003
1000
995
992
989
986
984
987
989
990
991
986
987
989
987
980
975
974
974
978
985
991
989
984
979
973
970
975
975
973
968
970
975
973
968
969
973
972
969
965
963
960
965
971
976
978
981
981
984
992
997
1001
1009
1017
1028
1034
1037
1039
1039
1031
1025
1027
1034
1033
1020
1007
995
991
988
986
979
971
962
957
960
961
959
953
953
955
956
959
957
951
952
951
955
953
948
940
927
919
920
930
955
1000
1071
1161
1250
1319
1361
1395
1411
1411
1394
1352
1278
1176
1052
941
885
893
924
935
938
939
943
949
949
945
941
939
940
941
937
936
938
936
932
931
929
930
937
940
941
943
940
941
940
941
941
941
941
939
937
941
947
951
948
942
938
935
942
949
954
948
948
948
948
949
946
949
950
958
964
968
968
968
967
974
981
984
977
973
969
975
984
991
995
996
1001
1007
1010
1018
1021
1018
1024
1031
1043
1050
1050
1044
1045
1052
1058
1059
1063
1067
1078
1082
1083
1081
1079
1080
1078
1083
1089
1091
1085
1079
1070
1066
1066
1063
1060
1052
1048
1043
1039
1031
1024
1020
1013
1010
1007
1006
1000
994
993
992
995
994
988
976
969
969
975
978
977
971
966
964
966
967
962
964
962
957
953
952
953
950
952
951
958
959
962
962
961
957
953
956
950
954
961
969
973
971
972
968
967
967
969
976
976
977
977
979
985
988
991
995
1004
1015
1031
1048
1066
1079
1096
1115
1142
1172
1194
1201
1178
1132
1079
1032
987
938
890
845
806
766
722
682
666
675
699
730
752
760
761
760
763
771
769
771
773
781
794
813
828
835
850
869
887
903
912
916
923
935
947
950
954
962
969
972
973
975
976
976
974
972
978
985
987
984
984
987
991
996
998
999
997
996
1005
1009
1009
1011
1015
1019
1021
1021
1022
1022
1032
1040
1046
1050
1051
1051
1052
1063
1073
1083
1088
1094
1100
1112
1125
1133
1139
1142
1146
1152
1159
1169
1175
1178
1179
1182
1190
1195
1197
1195
1193
1193
1192
1188
1185
1177
1170
1163
1164
1163
1158
1153
1144
1132
1126
1121
1110
1106
1101
1089
1081
1076
1067
1059
1053
1050
1050
1047
1048
1041
1028
1023
1027
1024
1016
1010
1005
1010
1015
1018
1017
1013
1012
1016
1017
1012
1009
1009
1009
1009
1010
1014
1018
1017
1008
998
1001
1018
1032
1038
1045
1060
1080
1093
1111
1131
1155
1182
1211
1240
1267
1297
1335
1381
1419
1441
1453
1459
1461
1465
1463
1452
1426
1382
1317
1230
1130
1025
954
931
941
946
944
938
928
913
900
893
889
892
889
882
876
878
874
868
857
855
855
859
859
855
847
843
840
839
840
840
844
845
848
848
842
837
834
837
836
840
840
837
834
841
841
844
845
838
823
815
818
827
822
811
793
784
779
776
781
786
782
773
767
765
762
757
758
763
762
763
765
762
749
750
759
765
766
770
777
785
787
790
797
802
807
813
822
835
839
844
850
861
864
856
860
874
889
896
896
893
892
895
901
911
912
910
907
914
920
921
909
899
902
923
933
927
914
911
920
926
930
932
934
933
931
931
938
944
946
947
951
953
952
953
951
953
953
957
957
955
953
954
959
960
960
957
955
956
958
959
956
955
955
954
957
958
957
956
953
959
960
954
950
944
946
944
948
954
955
952
945
945
943
951
948
946
944
942
944
945
942
942
940
939
938
942
940
938
933
933
937
944
943
937
935
935
939
942
941
935
934
937
939
941
936
935
934
936
935
939
937
937
933
940
943
944
937
934
933
936
939
940
945
943
943
940
936
942
940
938
939
941
943
942
940
939
938
936
942
943
943
943
946
946
941
943
946
946
941
946
946
949
949
944
938
937
940
944
946
947
947
948
950
950
949
948
948
949
950
952
950
946
945
947
950
952
950
946
947
950
951
949
948
946
944
945
947
951
951
943
941
944
952
958
956
946
939
942
947
949
950
948
948
948
953
952
952
953
953
954
955
954
951
948
942
946
947
950
952
953
950
953
957
961
959
956
954
952
947
945
944
953
954
955
955
958
954
953
949
951
956
958
955
953
951
952
956
959
959
958
958
959
965
970
975
974
977
982
984
987
998
1012
1017
1021
1022
1022
1020
1019
1017
1023
1022
1017
1006
996
991
990
984
973
966
964
962
961
962
960
961
962
960
961
965
966
952
939
934
947
978
1034
1114
1204
1276
1332
1370
1386
1385
1351
1283
1178
1052
948
909
921
936
946
951
957
956
952
954
954
949
947
946
947
950
954
956
955
956
959
956
953
954
953
956
957
950
947
951
958
962
957
954
953
959
963
960
959
960
963
964
966
967
968
966
965
965
968
970
969
970
978
982
984
978
976
974
980
988
994
993
991
994
1000
1006
1010
1014
1017
1019
1024
1028
1035
1036
1035
1040
1042
1048
1053
1058
1060
1063
1065
1070
1073
1074
1073
1071
1071
1076
1079
1078
1074
1069
1065
1065
1066
1061
1057
1058
1055
1053
1056
1055
1045
1031
1028
1033
1034
1025
1020
1014
1009
1010
1007
1003
999
995
990
988
986
985
987
993
990
987
985
984
979
978
979
986
996
995
986
981
980
987
989
986
975
977
982
988
994
1002
1000
998
997
1002
1014
1023
1025
1029
1039
1063
1083
1110
1128
1151
1181
1215
1256
1287
1313
1324
1318
1303
1288
1274
1251
1215
1170
1113
1048
988
949
928
920
916
910
902
895
897
906
915
925
929
929
928
930
930
929
925
921
919
917
918
919
912
913
918
922
921
910
899
892
891
895
904
909
911
910
912
918
920
921
923
919
920
917
919
922
919
919
915
913
918
921
920
915
918
920
923
922
921
921
919
921
923
929
931
933
936
942
944
954
956
956
960
965
973
979
979
981
981
990
994
993
991
989
995
1000
997
999
997
994
992
992
991
992
987
987
981
980
983
985
984
979
977
975
976
980
978
972
971
974
972
976
974
970
968
971
974
978
975
973
973
972
977
980
977
975
970
976
981
981
983
978
978
977
981
983
983
981
983
982
985
986
983
979
979
983
980
982
983
981
980
981
979
980
980
978
974
971
972
976
975
971
970
968
974
972
971
966
964
963
963
965
965
961
958
962
964
964
960
957
956
954
955
959
961
958
954
954
957
958
954
949
947
950
957
958
956
952
951
954
954
955
953
949
948
949
955
955
952
951
948
948
951
949
948
947
945
945
949
953
948
945
946
945
947
948
945
944
944
944
946
948
944
940
941
943
946
947
948
946
945
947
949
947
949
946
945
945
948
948
947
943
943
946
951
952
950
946
945
945
946
949
947
947
949
949
948
946
947
942
944
947
949
945
947
946
945
947
950
951
949
948
944
946
947
950
948
944
943
946
950
950
949
947
945
947
950
954
953
950
948
949
950
953
952
950
947
950
953
951
948
947
946
948
952
952
951
947
946
950
953
951
952
948
947
946
949
953
950
951
949
950
954
956
956
953
949
956
962
969
971
966
967
972
982
996
1007
1012
1014
1016
1016
1015
1016
1015
1011
1001
996
991
980
978
970
966
960
958
955
950
949
945
954
952
950
948
944
944
942
935
924
914
920
942
987
1061
1153
1237
1306
1351
1377
1383
1366
1314
1232
1116
991
895
869
886
909
913
916
922
927
929
929
932
932
933
928
926
926
927
928
933
932
930
927
929
931
934
932
930
926
928
930
930
927
927
929
931
934
935
935
931
930
931
935
936
938
934
932
932
936
940
941
944
945
947
949
952
948
949
949
955
958
961
960
961
959
965
968
968
969
973
975
978
980
985
987
990
994
999
1003
1009
1012
1011
1012
1015
1024
1031
1033
1031
1031
1035
1041
1044
1044
1042
1043
1046
1052
1054
1051
1049
1048
1044
1045
1043
1037
1032
1035
1034
1033
1035
1027
1018
1012
1012
1012
1011
1006
1003
998
996
996
995
994
985
979
980
980
980
975
972
966
966
968
968
964
960
958
960
965
963
960
959
959
961
966
965
964
962
963
969
974
978
971
968
970
975
976
981
980
981
982
984
990
991
991
992
994
1001
1008
1018
1020
1024
1033
1042
1051
1064
1072
1086
1106
1130
1156
1176
1175
1153
1124
1089
1055
1016
972
921
855
793
742
715
710
727
750
769
778
779
774
767
767
775
787
793
800
808
819
833
847
864
875
885
892
897
910
915
917
916
919
924
933
936
934
935
942
949
958
967
968
966
964
960
964
969
974
972
972
974
977
983
980
981
982
984
987
990
995
996
995
999
1004
1008
1007
1011
1014
1021
1031
1035
1040
1042
1049
1055
1065
1072
1078
1084
1091
1094
1107
1116
1120
1123
1127
1132
1141
1147
1149
1151
1152
1158
1160
1163
1161
1154
1153
1154
1153
1151
1148
1141
1137
1132
1130
1127
1120
1110
1100
1098
1096
1088
1082
1077
1069
1064
1059
1055
1047
1042
1036
1033
1029
1026
1018
1014
1007
1003
1004
1003
1002
996
992
989
991
993
992
991
987
988
986
985
984
980
978
977
976
978
975
970
969
964
966
968
962
959
957
956
960
961
960
959
960
958
960
963
960
958
957
957
960
960
960
957
956
957
960
960
960
953
948
947
947
944
944
936
931
927
931
931
930
924
927
929
935
936
933
927
924
924
931
935
932
926
920
923
922
923
922
921
920
919
920
923
918
922
921
919
921
921
914
917
919
920
923
921
920
914
916
917
919
923
923
922
923
924
921
924
922
923
922
919
918
910
910
910
918
922
926
922
920
918
919
921
923
923
919
914
914
919
923
917
912
904
902
907
914
917
918
914
911
910
911
914
916
913
914
916
916
919
919
915
914
915
918
921
919
920
921
924
926
925
920
917
916
924
926
931
928
921
919
915
918
922
921
924
927
924
924
923
923
922
921
927
932
933
932
930
930
931
938
942
942
939
941
935
930
927
928
931
937
945
948
948
941
931
926
927
930
929
930
932
942
952
954
951
944
940
943
955
968
987
997
1000
1000
998
1001
1006
1006
1002
998
994
985
972
961
954
955
959
962
956
949
939
933
935
938
943
937
936
935
938
944
947
945
937
920
903
895
907
932
984
1069
1169
1256
1319
1358
1380
1384
1370
1325
1246
1135
1015
919
878
894
917
922
911
905
911
922
931
931
929
926
924
930
937
940
935
929
927
928
926
923
923
923
918
916
919
922
924
924
926
932
935
932
925
922
923
930
935
934
931
927
929
934
936
942
937
937
940
935
935
931
931
936
947
955
950
943
936
936
940
947
949
952
951
956
959
961
966
968
970
973
974
976
976
980
982
987
997
1006
1014
1017
1010
1009
1005
1011
1015
1015
1013
1015
1020
1027
1032
1028
1019
1016
1017
1023
1029
1031
1026
1019
1023
1028
1029
1022
1016
1010
1012
1010
1010
1002
992
981
972
974
977
972
967
961
960
959
959
956
952
952
953
954
954
948
943
940
941
943
942
947
943
941
942
942
944
941
943
946
952
956
953
951
941
941
945
951
953
949
943
944
944
946
945
948
947
947
950
958
962
962
960
957
955
958
960
965
962
963
962
961
963
962
968
971
979
991
997
1000
1001
1009
1018
1033
1049
1072
1088
1115
1130
1129
1105
1072
1040
1008
985
963
936
900
853
801
758
736
731
739
753
758
760
760
758
759
764
770
773
779
788
803
819
831
835
842
850
867
883
899
913
925
936
942
939
939
935
933
936
937
942
939
942
948
949
945
946
948
951
955
959
960
955
956
958
962
964
966
965
964
963
959
963
967
970
973
977
978
981
987
990
991
994
999
1007
1010
1012
1017
1024
1032
1043
1051
1058
1065
1072
1079
1091
1096
1102
1108
1114
1120
1125
1128
1123
1131
1142
1151
1153
1152
1150
1146
1150
1151
1149
1143
1133
1133
1128
1128
1123
1114
1108
1100
1098
1095
1088
1080
1074
1065
1060
1054
1049
1046
1037
1036
1027
1024
1023
1022
1017
1012
1009
1007
1007
1009
1011
1015
1019
1017
1016
1006
998
992
992
991
991
996
993
995
996
1002
1005
1006
1002
1000
1001
1004
1002
995
989
993
997
1002
1003
999
993
994
995
998
1000
996
992
990
991
992
993
992
988
984
985
984
985
982
978
976
979
981
985
986
980
976
979
980
980
978
974
972
970
974
973
969
962
962
968
975
974
970
958
951
948
955
953
954
951
952
954
955
959
958
954
951
953
954
955
955
952
949
951
954
959
960
954
952
950
957
956
959
956
953
956
960
966
965
959
952
952
952
954
953
953
954
956
958
963
960
955
960
957
962
964
965
972
976
976
968
955
934
920
917
924
937
943
938
937
939
940
947
949
954
956
966
977
991
990
979
965
955
960
971
975
954
935
925
927
940
946
947
939
937
940
952
956
958
952
951
949
955
960
964
967
975
975
967
964
963
973
978
985
995
996
991
974
955
938
923
922
929
944
955
967
979
989
997
1003
1008
1010
1013
1015
1016
1016
1018
1024
1030
1028
1014
991
972
963
961
961
959
953
947
947
950
956
959
957
953
954
954
955
954
946
944
952
975
1020
1090
1177
1259
1323
1366
1388
1393
1366
1293
1173
1045
924
870
884
921
936
919
898
893
902
917
931
939
940
938
932
928
929
936
940
939
937
936
944
948
951
951
953
959
966
966
962
952
951
952
959
959
945
928
921
925
937
946
947
945
946
947
953
957
957
957
956
956
959
966
966
967
969
970
975
978
982
982
981
983
985
990
989
991
989
995
1003
1010
1013
1013
1014
1017
1023
1026
1029
1035
1038
1041
1047
1053
1058
1059
1061
1062
1068
1074
1074
1078
1078
1077
1077
1077
1079
1081
1079
1073
1073
1080
1085
1084
1076
1062
1043
1031
1024
1020
1014
1008
1001
1000
997
996
992
989
992
995
995
996
992
990
992
991
989
988
980
977
980
979
979
980
977
976
977
978
979
978
978
978
982
988
993
992
989
985
984
984
982
979
981
981
981
986
990
991
993
993
997
1002
1004
1006
1003
1002
1005
1007
1009
1011
1017
1016
1016
1012
1011
1008
1003
1004
998
991
981
975
972
974
983
989
992
991
988
989
991
991
988
984
984
986
993
1005
1020
1030
1031
1018
995
974
958
955
956
956
956
956
958
961
966
968
971
973
980
987
990
999
1008
1021
1036
1048
1058
1061
1059
1045
1029
1013
1004
1017
1026
1018
1000
986
979
981
979
978
976
968
963
961
961
964
967
967
969
970
974
981
989
994
984
961
942
931
940
956
982
1025
1109
1205
1295
1355
1382
1391
1377
1344
1281
1189
1083
969
892
877
894
909
908
910
920
932
939
939
936
937
940
948
953
952
949
947
948
951
950
951
947
948
949
950
953
952
950
948
952
953
958
958
954
950
954
964
976
978
969
953
942
937
942
950
952
955
956
961
962
962
961
964
967
976
980
981
980
987
994
1000
1005
1009
1011
1014
1019
1018
1012
1008
1012
1018
1028
1036
1039
1046
1050
1058
1069
1079
1081
1079
1079
1081
1084
1092
1097
1097
1095
1095
1102
1103
1098
1085
1079
1081
1081
1083
1084
1080
1075
1068
1056
1049
1039
1031
1022
1022
1022
1019
1016
1005
999
993
990
985
983
978
978
977
980
979
978
973
969
970
972
973
974
970
966
968
971
976
976
972
965
958
957
961
962
961
956
946
945
946
950
955
955
957
958
964
966
965
965
968
970
972
980
978
980
978
978
978
979
982
987
996
1009
1020
1029
1036
1042
1052
1070
1093
1121
1149
1174
1187
1188
1173
1148
1120
1082
1041
1005
954
884
813
756
733
738
757
775
784
784
772
762
759
765
769
772
780
798
823
840
852
862
879
898
910
913
917
926
939
954
963
962
964
961
963
967
971
974
972
973
973
979
984
986
986
985
984
988
995
996
995
993
993
999
1006
1011
1012
1012
1009
1011
1010
1012
1010
1010
1017
1027
1040
1050
1051
1046
1041
1051
1063
1075
1086
1093
1102
1111
1121
1129
1136
1143
1150
1160
1169
1176
1186
1189
1191
1191
1191
1188
1183
1177
1174
1170
1165
1160
1156
1152
1147
1143
1137
1133
1125
1118
1113
1111
1106
1100
1092
1085
1076
1075
1071
1065
1054
1048
1041
1036
1033
1030
1027
1023
1020
1018
1017
1016
1017
1014
1011
1013
1016
1020
1016
1012
1010
1012
1019
1026
1031
1035
1038
1043
1057
1080
1095
1106
1123
1151
1183
1217
1250
1278
1307
1343
1385
1421
1444
1452
1457
1460
1463
1462
1441
1396
1335
1268
1208
1139
1057
974
935
936
949
945
930
914
906
900
896
892
885
879
879
877
870
863
859
853
850
852
850
850
845
840
837
835
831
830
833
836
835
837
836
839
837
837
835
837
837
832
827
823
815
812
814
810
805
795
789
789
790
787
783
776
769
762
759
761
759
758
755
754
752
749
744
746
742
747
753
756
762
762
767
775
783
791
796
802
808
814
821
829
837
842
848
853
861
866
867
872
880
886
896
901
902
899
896
902
906
908
910
908
912
914
920
917
919
919
919
925
934
935
931
925
927
933
937
943
941
940
943
948
953
957
956
955
954
956
960
963
963
961
960
964
966
966
964
960
957
960
963
966
961
959
955
958
963
962
962
960
956
957
959
961
957
956
956
956
958
959
955
952
951
952
954
954
956
951
951
952
952
953
954
951
952
952
955
954
952
952
951
953
954
954
953
949
946
952
956
958
956
948
940
944
950
953
953
951
950
952
955
958
957
951
949
951
952
954
952
948
947
949
952
954
952
951
949
952
959
960
953
948
947
949
953
957
959
956
953
953
954
956
953
950
951
952
957
956
957
957
956
957
955
954
954
955
954
954
957
960
956
954
953
959
961
961
958
956
959
960
957
957
956
955
955
956
960
961
961
958
958
960
963
964
964
962
957
958
960
961
962
963
966
966
966
964
965
963
964
965
966
971
969
967
967
967
972
974
972
966
966
969
974
976
972
969
967
967
973
974
973
972
968
970
973
977
975
970
967
970
974
975
975
970
969
976
978
978
973
972
973
977
980
978
978
975
973
977
981
982
985
980
981
981
984
985
983
981
981
979
980
978
975
974
978
985
992
994
993
989
992
998
1001
1004
1007
1010
1016
1031
1042
1047
1044
1040
1039
1040
1046
1047
1042
1031
1029
1025
1020
1016
1010
1001
995
993
993
993
988
986
987
988
988
988
985
984
980
981
980
977
982
996
1034
1097
1185
1275
1338
1370
1380
1377
1353
1296
1204
1088
971
895
888
920
945
946
943
948
960
968
972
970
970
973
973
972
970
965
963
967
972
977
977
969
968
970
970
970
973
974
970
968
968
971
970
968
967
968
974
978
978
973
972
974
976
977
980
978
976
979
986
994
993
989
988
991
995
996
995
993
990
993
998
1004
1006
1010
1007
1013
1015
1020
1022
1027
1033
1037
1038
1038
1036
1039
1042
1051
1060
1062
1062
1059
1059
1061
1066
1070
1073
1082
1088
1090
1092
1088
1083
1081
1079
1082
1081
1082
1080
1073
1065
1067
1065
1067
1061
1057
1057
1057
1059
1058
1058
1052
1051
1053
1050
1043
1038
1034
1029
1028
1026
1025
1022
1022
1018
1020
1019
1019
1012
1009
1010
1010
1012
1013
1011
1011
1012
1017
1023
1024
1017
1009
1002
1003
1010
1016
1019
1023
1028
1030
1032
1030
1031
1030
1026
1029
1033
1040
1037
1031
1031
1027
1024
1022
1019
1014
1020
1029
1036
1044
1050
1056
1061
1063
1059
1052
1045
1044
1045
1051
1052
1040
1019
986
948
922
905
895
886
869
851
838
830
823
819
815
827
845
865
885
910
936
969
997
1028
1051
1059
1056
1045
1031
1017
999
982
971
967
975
976
976
971
967
968
973
975
974
968
963
964
973
983
983
981
981
984
988
994
1001
1005
1001
999
1001
1010
1012
1014
1011
1014
1014
1018
1020
1022
1022
1025
1028
1035
1037
1035
1040
1040
1042
1044
1044
1047
1054
1067
1089
1106
1111
1107
1110
1118
1133
1143
1157
1161
1160
1156
1153
1155
1157
1150
1148
1146
1155
1166
1173
1176
1178
1177
1181
1185
1187
1186
1182
1181
1178
1180
1176
1173
1167
1161
1157
1157
1150
1146
1136
1129
1123
1118
1115
1108
1100
1092
1089
1086
1080
1072
1061
1056
1054
1053
1051
1044
1037
1035
1031
1029
1030
1027
1022
1020
1022
1024
1023
1020
1018
1018
1019
1024
1022
1018
1016
1013
1016
1014
1015
1016
1013
1014
1012
1012
1007
1005
1003
1003
1002
1001
1002
1001
996
994
993
994
993
985
979
980
983
985
986
980
977
975
975
975
975
974
973
968
970
972
974
972
965
964
963
964
963
962
962
960
961
966
968
964
960
957
957
962
964
960
954
946
951
957
957
954
951
952
951
956
959
955
952
951
952
953
952
956
952
953
952
952
952
953
953
947
950
948
950
951
950
950
951
951
949
951
948
949
950
952
951
952
951
953
952
951
952
954
952
950
951
953
954
955
952
950
953
954
954
952
953
950
949
950
952
953
950
947
950
952
955
950
947
947
952
954
952
950
953
947
950
953
955
954
953
949
954
957
956
954
951
951
955
956
957
957
953
952
953
955
953
955
950
952
951
952
954
952
954
952
954
957
960
955
949
950
956
956
959
957
955
953
952
953
956
956
954
955
955
957
954
952
949
952
955
955
961
956
955
953
955
958
962
960
956
957
958
959
961
961
962
963
963
966
968
971
974
978
983
987
992
999
1010
1019
1024
1031
1033
1030
1026
1023
1024
1026
1026
1020
1008
999
994
988
987
983
973
967
964
967
967
965
961
959
960
963
962
959
959
957
957
951
948
942
941
957
986
1043
1121
1204
1275
1322
1358
1380
1377
1347
1291
1202
1092
981
905
884
907
930
936
936
939
941
943
944
944
943
944
940
934
939
941
945
946
945
942
937
936
938
939
943
942
940
940
943
944
946
943
940
942
942
946
946
943
946
949
955
955
952
950
950
951
952
957
955
956
955
955
961
963
963
963
964
965
973
976
973
970
970
974
985
989
987
985
986
991
1000
1001
1005
1005
1007
1014
1021
1024
1029
1027
1030
1037
1041
1047
1050
1049
1052
1058
1064
1064
1065
1066
1069
1069
1071
1072
1073
1070
1070
1071
1068
1065
1057
1055
1056
1057
1055
1049
1047
1038
1030
1027
1027
1026
1020
1014
1009
1007
1007
1002
999
993
990
991
990
988
985
980
977
979
981
982
975
967
965
970
975
976
973
969
968
971
975
975
974
972
971
970
976
980
978
974
975
978
981
983
982
982
981
987
989
991
987
983
980
984
994
996
994
992
995
1002
1008
1007
1010
1014
1021
1031
1040
1043
1046
1052
1069
1096
1127
1155
1170
1161
1138
1106
1077
1045
1015
980
928
858
793
740
717
714
729
754
768
770
758
751
751
755
763
768
776
791
806
827
839
846
854
865
875
885
897
905
911
918
919
920
924
933
939
939
943
949
955
956
958
958
961
963
968
970
971
968
970
975
981
981
979
977
980
984
987
989
988
988
995
997
1000
1004
1008
1011
1012
1018
1021
1025
1026
1029
1035
1044
1054
1062
1065
1066
1073
1083
1097
1106
1111
1113
1123
1132
1140
1144
1150
1151
1157
1163
1166
1171
1172
1170
1167
1167
1170
1168
1165
1159
1156
1152
1149
1142
1137
1129
1120
1115
1112
1110
1105
1092
1083
1074
1071
1068
1063
1054
1046
1043
1041
1038
1034
1028
1025
1021
1018
1019
1020
1013
1008
1004
1006
1013
1014
1012
1008
1006
1007
1008
1004
1003
996
1003
1004
1007
1007
1004
1001
1003
1010
1013
1016
1022
1028
1040
1054
1067
1080
1091
1104
1125
1147
1166
1179
1193
1209
1230
1258
1282
1300
1304
1295
1289
1282
1276
1272
1263
1242
1219
1203
1195
1197
1210
1216
1213
1194
1167
1125
1075
1034
997
969
949
933
925
920
915
911
906
898
889
880
877
874
871
866
858
856
857
859
857
856
849
843
844
844
844
851
853
851
853
859
862
861
859
860
861
862
862
856
855
851
852
854
853
848
842
840
838
838
839
837
833
829
828
831
830
827
825
823
823
825
826
825
822
827
828
831
835
835
836
839
844
849
856
855
855
861
867
876
882
886
884
889
896
903
911
914
914
914
920
926
932
930
932
933
939
944
943
939
935
940
944
946
948
950
951
949
948
949
946
949
953
956
953
958
960
961
959
958
957
959
960
960
958
958
962
964
964
961
956
959
961
961
962
960
956
955
958
958
961
958
957
955
959
963
963
960
958
954
960
961
957
956
952
954
957
959
956
956
955
955
955
951
947
951
949
950
951
954
952
951
950
945
947
943
946
947
945
945
946
948
947
945
943
943
945
950
951
947
940
935
936
944
948
947
946
944
943
950
950
945
942
945
945
949
949
944
942
938
938
946
946
944
941
940
944
946
948
944
941
942
943
947
947
946
943
944
943
943
946
948
945
942
941
945
950
948
944
942
945
948
948
945
943
943
944
945
949
947
944
943
943
946
946
947
946
945
946
944
947
946
946
945
945
948
950
946
944
944
948
946
948
945
945
944
945
948
949
948
943
943
945
949
948
948
940
942
947
949
949
947
945
944
945
948
948
947
943
944
946
947
948
942
943
946
947
952
951
951
950
948
948
950
953
951
950
947
947
948
956
954
949
945
946
954
956
951
949
948
948
950
950
955
955
949
953
955
957
953
950
948
951
952
955
955
953
953
957
961
961
955
952
953
954
957
956
955
957
955
955
955
958
960
963
962
958
959
964
966
964
967
976
980
985
982
983
987
996
1018
1028
1030
1027
1027
1029
1033
1034
1030
1027
1017
1009
1000
994
989
980
975
971
971
968
963
959
960
961
965
963
960
960
957
954
949
945
938
944
968
1023
1104
1198
1282
1335
1366
1383
1371
1331
1246
1128
1000
894
872
899
931
936
932
932
939
944
944
939
938
939
940
938
938
938
941
940
940
938
942
941
942
943
945
944
942
942
942
942
942
947
946
941
940
941
946
946
945
945
944
944
951
953
952
947
945
952
956
959
959
960
960
966
971
973
974
973
973
974
980
985
987
986
992
996
999
1005
1007
1006
1008
1016
1023
1027
1027
1029
1031
1038
1043
1044
1046
1046
1048
1055
1056
1057
1057
1057
1057
1057
1055
1058
1054
1049
1044
1043
1047
1043
1042
1034
1031
1031
1027
1029
1027
1019
1014
1012
1008
1012
1008
999
994
995
996
994
992
985
982
987
990
987
982
980
977
979
981
982
979
980
979
979
979
980
982
980
980
980
984
979
982
981
984
988
991
991
989
986
988
992
993
992
993
991
994
990
996
993
990
986
987
990
995
995
991
986
984
986
987
985
983
978
975
976
977
978
977
972
968
968
971
970
971
965
965
964
967
972
969
963
959
958
960
962
958
956
953
957
960
959
955
953
952
953
955
955
954
954
952
954
956
955
951
952
952
950
952
951
948
945
945
950
952
951
949
947
947
948
949
949
949
945
945
947
951
950
951
951
950
953
957
961
966
968
967
965
977
989
999
1004
1009
1018
1021
1020
1017
1013
1014
1015
1015
1002
987
981
975
971
968
963
956
951
948
947
950
946
945
944
942
942
944
943
946
936
928
917
907
899
898
916
959
1039
1144
1244
1324
1370
1399
1406
1386
1329
1236
1116
988
892
867
886
905
907
906
912
924
935
937
931
926
923
926
928
931
925
925
925
922
923
925
926
928
928
934
931
927
923
921
926
928
930
930
929
934
935
933
935
941
942
938
937
940
942
941
940
943
949
955
950
949
944
947
957
965
967
967
963
955
962
970
979
984
983
984
984
990
992
990
997
1001
1011
1019
1025
1021
1020
1023
1027
1040
1052
1051
1050
1052
1061
1067
1070
1064
1057
1054
1055
1063
1063
1063
1058
1051
1048
1038
1028
1024
1021
1023
1024
1018
1008
1000
993
989
986
986
985
984
977
971
968
968
970
965
962
957
958
963
961
958
953
953
954
949
947
945
943
945
945
948
950
950
950
947
949
948
948
947
945
946
948
952
959
958
960
950
951
958
968
971
967
962
960
962
962
965
970
971
969
968
968
962
953
959
965
969
966
962
961
959
960
964
967
962
958
952
952
958
958
958
954
953
955
960
957
957
955
955
958
959
959
958
954
951
947
952
955
955
953
948
940
940
944
944
944
940
945
946
946
945
943
944
949
957
955
946
937
933
938
949
954
954
949
944
947
946
942
944
943
944
948
950
947
946
948
947
950
948
943
943
943
946
949
951
955
959
961
964
967
971
977
972
973
976
991
1014
1026
1024
1019
1015
1021
1023
1025
1021
1012
1007
1002
991
979
971
965
969
967
962
958
950
949
950
954
958
957
952
945
945
947
951
950
942
931
929
942
985
1055
1155
1251
1322
1376
1409
1418
1400
1354
1276
1168
1040
919
864
876
903
911
912
920
930
935
933
936
937
933
930
931
937
937
936
937
942
943
937
931
933
933
937
940
938
937
937
940
942
939
938
933
937
944
946
944
939
942
947
952
952
946
948
952
954
954
953
954
959
964
964
962
965
970
975
976
972
970
968
971
977
986
993
998
997
992
997
1005
1010
1012
1009
1010
1019
1028
1032
1033
1033
1041
1053
1062
1066
1065
1065
1060
1060
1071
1089
1097
1095
1086
1078
1079
1081
1082
1072
1058
1060
1067
1067
1068
1061
1053
1041
1038
1038
1037
1025
1013
1012
1013
1012
1006
999
995
993
992
993
990
986
980
976
976
977
976
972
973
973
972
971
968
962
958
959
960
960
958
965
969
967
967
967
967
965
964
966
969
967
969
968
970
969
968
972
977
979
979
979
986
991
991
990
989
990
992
994
986
984
981
980
988
994
988
984
974
973
972
977
977
976
977
979
979
979
978
976
973
975
981
986
986
981
972
959
954
966
978
980
972
969
966
965
957
963
964
959
956
960
966
966
957
956
958
966
968
961
956
955
953
952
950
953
957
964
963
962
957
959
955
952
952
953
959
960
954
947
950
959
960
955
947
944
955
960
960
950
943
946
956
958
957
953
952
951
953
955
960
960
947
941
946
955
963
964
953
945
936
940
950
949
951
954
955
958
953
949
948
951
961
967
966
957
947
955
968
981
981
976
972
979
991
1002
1012
1014
1011
1009
1014
1017
1020
1020
1018
1012
1007
998
987
981
973
973
969
963
948
935
935
948
959
958
948
937
931
941
952
956
952
944
937
927
921
911
907
915
942
996
1078
1174
1265
1333
1376
1408
1427
1427
1402
1341
1246
1123
995
894
871
896
921
922
915
921
928
934
933
930
930
931
935
933
924
921
924
933
937
939
931
923
922
925
928
928
927
928
932
935
933
935
939
943
940
937
935
932
933
935
941
946
947
941
933
937
941
944
945
944
946
946
947
950
951
946
952
951
955
957
958
955
952
956
961
966
971
974
975
979
979
985
982
984
983
989
1003
1010
1013
1014
1015
1016
1024
1031
1035
1043
1043
1044
1051
1054
1061
1064
1067
1069
1077
1084
1086
1081
1072
1072
1078
1087
1090
1086
1076
1070
1069
1071
1069
1066
1056
1047
1043
1040
1040
1034
1025
1023
1021
1016
1013
1011
1006
1000
994
995
995
991
979
969
969
976
983
986
980
975
970
967
961
953
953
960
963
965
968
964
955
946
944
947
952
953
946
945
952
956
959
954
953
950
948
950
952
955
953
950
947
948
951
954
956
962
966
967
961
953
951
956
962
969
974
975
975
972
976
981
992
999
1007
1013
1017
1022
1029
1037
1051
1070
1097
1122
1146
1157
1151
1127
1094
1061
1023
984
954
923
887
840
791
746
714
703
713
735
755
762
755
750
747
751
758
765
771
779
789
803
822
834
838
843
861
884
906
914
920
918
919
923
933
948
955
964
967
973
973
965
961
963
973
987
989
993
989
985
978
985
991
1002
1003
997
989
994
1009
1020
1018
1002
992
997
1013
1030
1036
1033
1027
1026
1024
1028
1031
1036
1049
1067
1080
1078
1078
1085
1094
1103
1113
1123
1127
1131
1140
1149
1162
1172
1179
1184
1192
1196
1205
1211
1207
1206
1210
1215
1219
1218
1218
1217
1214
1211
1210
1202
1194
1190
1186
1186
1182
1174
1160
1145
1131
1126
1127
1120
1107
1091
1082
1078
1073
1060
1053
1049
1046
1040
1037
1029
1021
1020
1018
1016
1002
993
990
992
996
999
1000
998
988
984
988
997
1003
1000
996
992
993
1000
1001
989
981
981
990
998
997
991
983
981
987
993
996
994
987
990
997
1000
999
988
985
987
991
992
990
989
991
991
993
992
991
988
982
980
981
982
981
978
971
972
976
979
977
976
970
966
969
972
971
968
968
964
964
967
972
970
965
960
960
961
959
957